mode	ox/red	error	control changes	counter inc.	time/s	control/V	Ewe/V	<I>/mA	cycle number	(Q-Qo)/C	I Range	step time/s	P/W	
2	0	0	1	0	0.000000000000000E+000	-2.9997608E-001	-2.9994401E-001	-7.546334713697433E-002	1.000000000000000E+000	0.0000000E+000	39	0.000000000000000E+000	2.2634778E-005
2	0	0	1	0	5.499999861058313E-002	-3.0052605E-001	-3.0046102E-001	-1.315955558675332E-002	1.000000000000000E+000	-1.0798382E-006	39	0.000000000000000E+000	3.9539336E-006
2	0	0	1	0	1.549999960843707E-001	-3.0152586E-001	-3.0146837E-001	-3.260552373906950E-003	1.000000000000000E+000	-1.8883150E-006	39	9.999999747378752E-002	9.8295345E-007
2	0	0	1	0	2.549999935581582E-001	-3.0252573E-001	-3.0244711E-001	-1.934659983979362E-003	1.000000000000000E+000	-2.2122483E-006	39	1.999999949475750E-001	5.8513234E-007
2	0	0	1	0	3.549999910319457E-001	-3.0352557E-001	-3.0346528E-001	-1.086081636681568E-003	1.000000000000000E+000	-2.4259214E-006	39	2.999999924213625E-001	3.2958806E-007
2	0	0	1	0	4.549999885057332E-001	-3.0452538E-001	-3.0445021E-001	-6.221289330357368E-004	1.000000000000000E+000	-2.5762522E-006	39	3.999999898951501E-001	1.8940729E-007
2	0	0	1	0	5.549999859795207E-001	-3.0552521E-001	-3.0545604E-001	-3.360234064073370E-004	1.000000000000000E+000	-2.6883736E-006	39	4.999999873689376E-001	1.0264038E-007
2	0	0	1	0	6.549999834533082E-001	-3.0652502E-001	-3.0645284E-001	3.467681486628825E-005	1.000000000000000E+000	-2.7676435E-006	39	5.999999848427251E-001	-1.0626809E-008
2	0	0	1	0	7.549999809270957E-001	-3.0752489E-001	-3.0745107E-001	1.735581062836927E-004	1.000000000000000E+000	-2.8179802E-006	39	6.999999823165126E-001	-5.3360626E-008
2	0	0	1	0	8.549999784008833E-001	-3.0852473E-001	-3.0843386E-001	2.657958607541243E-004	1.000000000000000E+000	-2.8570453E-006	39	7.999999797903001E-001	-8.1980446E-008
2	0	0	1	0	9.549999758746708E-001	-3.0952454E-001	-3.0945310E-001	1.979135202405898E-004	1.000000000000000E+000	-2.8927780E-006	39	8.999999772640876E-001	-6.1244954E-008
2	0	0	1	0	1.054999973348458E+000	-3.1052437E-001	-3.1044430E-001	3.237338413429021E-004	1.000000000000000E+000	-2.9268617E-006	39	9.999999747378752E-001	-1.0050132E-007
2	0	0	1	0	1.154899970824772E+000	-3.1152484E-001	-3.1146848E-001	4.720444987814341E-004	1.000000000000000E+000	-2.9487776E-006	39	1.099899972214189E+000	-1.4702698E-007
2	1	0	0	0	1.254799968301086E+000	-3.1252402E-001	-3.1245035E-001	4.977356488556368E-004	1.000000000000000E+000	-2.9606588E-006	39	1.199799969690503E+000	-1.5551768E-007
2	1	0	0	0	1.354799965774873E+000	-3.1352389E-001	-3.1345072E-001	3.842941754017871E-004	1.000000000000000E+000	-2.9762184E-006	39	1.299799967164290E+000	-1.2045729E-007
2	0	0	0	0	1.454799963248661E+000	-3.1452370E-001	-3.1444451E-001	4.072987339876176E-004	1.000000000000000E+000	-2.9982248E-006	39	1.399799964638078E+000	-1.2807286E-007
2	1	0	0	0	1.554799960722448E+000	-3.1552354E-001	-3.1546289E-001	6.238188808622529E-004	1.000000000000000E+000	-3.0062772E-006	39	1.499799962111865E+000	-1.9679170E-007
2	1	0	0	0	1.654799958196236E+000	-3.1652334E-001	-3.1646115E-001	6.232744160654491E-004	1.000000000000000E+000	-3.0032620E-006	39	0.000000000000000E+000	-1.9724213E-007
2	1	0	0	0	1.754799955670023E+000	-3.1752318E-001	-3.1746402E-001	7.473837890319968E-004	1.000000000000000E+000	-2.9947541E-006	39	9.999999747378752E-002	-2.3726747E-007
2	1	0	0	0	1.854799953143811E+000	-3.1852302E-001	-3.1843665E-001	7.977668882719821E-004	1.000000000000000E+000	-2.9763846E-006	39	1.999999949475750E-001	-2.5403821E-007
2	1	0	0	0	1.954799950617598E+000	-3.1952286E-001	-3.1943765E-001	7.210800422399171E-004	1.000000000000000E+000	-2.9604473E-006	39	2.999999924213625E-001	-2.3034012E-007
2	1	0	0	0	2.054799948091386E+000	-3.2052270E-001	-3.2044926E-001	6.807500306178077E-004	1.000000000000000E+000	-2.9521857E-006	39	3.999999898951501E-001	-2.1814584E-007
2	1	0	0	0	2.154799945565173E+000	-3.2152250E-001	-3.2146829E-001	8.068023964445566E-004	1.000000000000000E+000	-2.9390526E-006	39	4.999999873689376E-001	-2.5936140E-007
2	1	0	1	0	2.254699943041487E+000	-3.2252142E-001	-3.2244781E-001	7.751134248039759E-004	1.000000000000000E+000	-2.9209048E-006	39	5.998999848452513E-001	-2.4993363E-007
2	1	0	1	0	2.354599940517801E+000	-3.2352215E-001	-3.2347178E-001	6.708929615018427E-004	1.000000000000000E+000	-2.9115376E-006	39	6.997999823215650E-001	-2.1701494E-007
2	1	0	1	0	2.454599937991588E+000	-3.2452202E-001	-3.2445139E-001	8.061220673880633E-004	1.000000000000000E+000	-2.8976788E-006	39	7.997999797953526E-001	-2.6154743E-007
2	1	0	1	0	2.554599935465376E+000	-3.2552183E-001	-3.2546234E-001	8.411489855259628E-004	1.000000000000000E+000	-2.8726931E-006	39	8.997999772691401E-001	-2.7376231E-007
2	1	0	1	0	2.654599932939163E+000	-3.2652166E-001	-3.2645464E-001	7.628527942718710E-004	1.000000000000000E+000	-2.8510194E-006	39	9.997999747429276E-001	-2.4903684E-007
2	1	0	1	0	2.754599930412951E+000	-3.2752150E-001	-3.2746243E-001	8.448868204932660E-004	1.000000000000000E+000	-2.8305230E-006	39	1.099799972216715E+000	-2.7666869E-007
2	1	0	1	0	2.854599927886738E+000	-3.2852134E-001	-3.2845175E-001	8.818576361591104E-004	1.000000000000000E+000	-2.8038007E-006	39	1.199799969690503E+000	-2.8964769E-007
2	1	0	1	0	2.954599925360526E+000	-3.2952115E-001	-3.2945302E-001	7.830628489092217E-004	1.000000000000000E+000	-2.7849333E-006	39	1.299799967164290E+000	-2.5798244E-007
2	1	0	1	0	3.054599922834313E+000	-3.3052102E-001	-3.3046418E-001	8.712205687433847E-004	1.000000000000000E+000	-2.7655237E-006	39	1.399799964638078E+000	-2.8790720E-007
2	1	0	1	0	3.154599920308101E+000	-3.3152083E-001	-3.3145308E-001	7.954452529348698E-004	1.000000000000000E+000	-2.7382737E-006	39	1.499799962111865E+000	-2.6365279E-007
2	1	0	1	0	3.254599917781889E+000	-3.3252063E-001	-3.3246386E-001	7.067413838418163E-004	1.000000000000000E+000	-2.7196297E-006	39	1.599799959585653E+000	-2.3496597E-007
2	1	0	1	0	3.354599915255676E+000	-3.3352050E-001	-3.3343768E-001	9.032932590405867E-004	1.000000000000000E+000	-2.6989380E-006	39	1.699799957059440E+000	-3.0119202E-007
2	1	0	1	0	3.454499912731990E+000	-3.3451942E-001	-3.3443713E-001	8.501104911164244E-004	1.000000000000000E+000	-2.6725531E-006	39	1.799699954535754E+000	-2.8430853E-007
2	0	0	0	0	3.554399910208303E+000	-3.3552015E-001	-3.3544478E-001	8.659139396922071E-004	1.000000000000000E+000	-2.6505011E-006	39	1.899599952012068E+000	-2.9046632E-007
2	1	0	0	0	3.654399907682091E+000	-3.3651996E-001	-3.3644113E-001	9.444324721264927E-004	1.000000000000000E+000	-2.6243647E-006	39	1.999599949485855E+000	-3.1774593E-007
2	0	0	0	0	3.754399905155879E+000	-3.3751982E-001	-3.3746213E-001	7.260311262389978E-004	1.000000000000000E+000	-2.6027940E-006	39	2.099599946959643E+000	-2.4500801E-007
2	1	0	0	0	3.854399902629666E+000	-3.3851963E-001	-3.3842680E-001	7.863805331167137E-004	1.000000000000000E+000	-2.5875067E-006	39	2.199599944433430E+000	-2.6613225E-007
2	1	0	0	0	3.954399900103454E+000	-3.3951947E-001	-3.3943632E-001	9.853510328041524E-004	1.000000000000000E+000	-2.5596378E-006	39	2.299599941907218E+000	-3.3446392E-007
2	0	0	0	0	4.054399897577241E+000	-3.4051931E-001	-3.4042966E-001	1.002262712556023E-003	1.000000000000000E+000	-2.5236766E-006	39	2.399599939381005E+000	-3.4119995E-007
2	0	0	0	0	4.154399895051029E+000	-3.4151915E-001	-3.4142748E-001	7.892112258218731E-004	1.000000000000000E+000	-2.4952631E-006	39	2.499599936854793E+000	-2.6945838E-007
2	1	0	0	0	4.254399892524816E+000	-3.4251896E-001	-3.4242597E-001	7.696842026571494E-004	1.000000000000000E+000	-2.4786004E-006	39	2.599599934328580E+000	-2.6355985E-007
2	0	0	0	0	4.354399889998604E+000	-3.4351879E-001	-3.4342673E-001	7.258069582997406E-004	1.000000000000000E+000	-2.4632284E-006	39	2.699599931802368E+000	-2.4926152E-007
2	1	0	0	0	4.454399887472391E+000	-3.4451863E-001	-3.4443748E-001	8.520411583800881E-004	1.000000000000000E+000	-2.4446608E-006	39	2.799599929276155E+000	-2.9347490E-007
2	1	0	0	0	4.554399884946179E+000	-3.4551844E-001	-3.4544170E-001	8.296110088521248E-004	1.000000000000000E+000	-2.4223741E-006	39	2.899599926749943E+000	-2.8658224E-007
2	1	0	1	0	4.654299882422492E+000	-3.4651783E-001	-3.4646022E-001	8.010443655214645E-004	1.000000000000000E+000	-2.4033100E-006	39	2.999499924226257E+000	-2.7753001E-007
2	1	0	1	0	4.754199879898806E+000	-3.4751812E-001	-3.4744796E-001	8.723941198156724E-004	1.000000000000000E+000	-2.3799842E-006	39	3.099399921702570E+000	-3.0311156E-007
2	0	0	1	0	4.854199877372594E+000	-3.4851795E-001	-3.4843642E-001	8.925017535935473E-004	1.000000000000000E+000	-2.3541438E-006	39	3.199399919176358E+000	-3.1098011E-007
2	1	0	1	0	4.954199874846381E+000	-3.4951779E-001	-3.4944484E-001	8.213933749082695E-004	1.000000000000000E+000	-2.3318341E-006	39	3.299399916650145E+000	-2.8703167E-007
2	0	0	1	0	5.054199872320169E+000	-3.5051766E-001	-3.5044947E-001	7.679211771000356E-004	1.000000000000000E+000	-2.3174284E-006	39	3.399399914123933E+000	-2.6911758E-007
2	0	0	1	0	5.154199869793956E+000	-3.5151744E-001	-3.5145959E-001	8.520428932486009E-004	1.000000000000000E+000	-2.3032751E-006	39	3.499399911597720E+000	-2.9945866E-007
2	0	0	1	0	5.254199867267744E+000	-3.5251725E-001	-3.5245636E-001	8.822917271042209E-004	1.000000000000000E+000	-2.2850566E-006	39	3.599399909071508E+000	-3.1096934E-007
2	0	0	1	0	5.354199864741531E+000	-3.5351712E-001	-3.5345122E-001	9.091963939782633E-004	1.000000000000000E+000	-2.2613888E-006	39	3.699399906545295E+000	-3.2135657E-007
2	1	0	1	0	5.454199862215319E+000	-3.5451695E-001	-3.5442996E-001	9.896791083713590E-004	1.000000000000000E+000	-2.2325189E-006	39	3.799399904019083E+000	-3.5077193E-007
2	1	0	1	0	5.554199859689106E+000	-3.5551679E-001	-3.5545936E-001	9.213891513466205E-004	1.000000000000000E+000	-2.2013330E-006	39	3.899399901492870E+000	-3.2751640E-007
2	0	0	1	0	5.654199857162894E+000	-3.5651660E-001	-3.5645467E-001	6.913315259472102E-004	1.000000000000000E+000	-2.1856008E-006	39	3.999399898966658E+000	-2.4642836E-007
2	1	0	1	0	5.754199854636681E+000	-3.5751644E-001	-3.5743931E-001	7.555802746634505E-004	1.000000000000000E+000	-2.1762210E-006	39	4.099399896440445E+000	-2.7007408E-007
2	0	0	1	0	5.854099852112995E+000	-3.5851607E-001	-3.5844493E-001	6.836743161252861E-004	1.000000000000000E+000	-2.1671165E-006	39	4.199299893916759E+000	-2.4505960E-007
2	1	0	0	0	5.953999849589309E+000	-3.5951611E-001	-3.5943732E-001	8.899313364715304E-004	1.000000000000000E+000	-2.1481180E-006	39	4.299199891393073E+000	-3.1987454E-007
2	1	0	0	0	6.053999847063096E+000	-3.6051595E-001	-3.6046526E-001	7.396532746392296E-004	1.000000000000000E+000	-2.1280007E-006	39	4.399199888866860E+000	-2.6661931E-007
2	1	0	0	0	6.153999844536884E+000	-3.6151579E-001	-3.6144355E-001	8.908667621199129E-004	1.000000000000000E+000	-2.1067710E-006	39	4.499199886340648E+000	-3.2199804E-007
2	1	0	0	0	6.253999842010671E+000	-3.6251560E-001	-3.6246321E-001	8.479874658430843E-004	1.000000000000000E+000	-2.0843318E-006	39	4.599199883814435E+000	-3.0736425E-007
2	1	0	0	0	6.353999839484459E+000	-3.6351544E-001	-3.6343282E-001	8.354911935792107E-004	1.000000000000000E+000	-2.0657992E-006	39	4.699199881288223E+000	-3.0364492E-007
2	1	0	0	0	6.453999836958246E+000	-3.6451524E-001	-3.6444721E-001	9.992105555856751E-004	1.000000000000000E+000	-2.0400798E-006	39	4.799199878762010E+000	-3.6415949E-007
2	1	0	0	0	6.553999834432034E+000	-3.6551511E-001	-3.6543590E-001	8.351647250848318E-004	1.000000000000000E+000	-2.0122948E-006	39	4.899199876235798E+000	-3.0519917E-007
2	1	0	0	0	6.653999831905821E+000	-3.6651492E-001	-3.6643967E-001	1.034599303546168E-003	1.000000000000000E+000	-1.9841502E-006	39	4.999199873709586E+000	-3.7911823E-007
2	1	0	0	0	6.753999829379609E+000	-3.6751473E-001	-3.6742604E-001	8.290957530250505E-004	1.000000000000000E+000	-1.9568579E-006	39	5.099199871183373E+000	-3.0463136E-007
2	1	0	0	0	6.853999826853396E+000	-3.6851460E-001	-3.6844122E-001	9.150695107530658E-004	1.000000000000000E+000	-1.9370086E-006	39	5.199199868657161E+000	-3.3714934E-007
2	1	0	0	0	6.953999824327184E+000	-3.6951444E-001	-3.6944923E-001	8.344438004357357E-004	1.000000000000000E+000	-1.9172144E-006	39	5.299199866130948E+000	-3.0828463E-007
2	1	0	1	0	7.053899821803498E+000	-3.7051448E-001	-3.7045962E-001	9.968448524083967E-004	1.000000000000000E+000	-1.8919670E-006	39	5.399099863607262E+000	-3.6929077E-007
2	1	0	1	0	7.153799819279811E+000	-3.7151408E-001	-3.7146801E-001	8.870468946379634E-004	1.000000000000000E+000	-1.8655321E-006	39	5.498999861083576E+000	-3.2950953E-007
2	1	0	1	0	7.253799816753599E+000	-3.7251392E-001	-3.7246031E-001	7.594741710877134E-004	1.000000000000000E+000	-1.8509205E-006	39	5.598999858557363E+000	-2.8287397E-007
2	1	0	1	0	7.353799814227386E+000	-3.7351373E-001	-3.7345070E-001	7.488838477069330E-004	1.000000000000000E+000	-1.8418067E-006	39	5.698999856031151E+000	-2.7967118E-007
2	1	0	1	0	7.453799811701174E+000	-3.7451360E-001	-3.7445575E-001	7.413174247445885E-004	1.000000000000000E+000	-1.8336749E-006	39	5.798999853504938E+000	-2.7759057E-007
2	1	0	1	0	7.553799809174961E+000	-3.7551343E-001	-3.7545103E-001	7.951417645878558E-004	1.000000000000000E+000	-1.8205494E-006	39	5.898999850978726E+000	-2.9853680E-007
2	1	0	1	0	7.653799806648749E+000	-3.7651321E-001	-3.7648275E-001	8.278418587329512E-004	1.000000000000000E+000	-1.8032985E-006	39	5.998999848452513E+000	-3.1166817E-007
2	1	0	1	0	7.753799804122536E+000	-3.7751308E-001	-3.7744388E-001	7.684171064236481E-004	1.000000000000000E+000	-1.7887362E-006	39	6.098999845926301E+000	-2.9003434E-007
2	1	0	1	0	7.853799801596324E+000	-3.7851292E-001	-3.7843642E-001	7.368032075789777E-004	1.000000000000000E+000	-1.7786722E-006	39	6.198999843400088E+000	-2.7883317E-007
2	1	0	1	0	7.953799799070111E+000	-3.7951273E-001	-3.7943721E-001	7.939055350292337E-004	1.000000000000000E+000	-1.7645871E-006	39	6.298999840873876E+000	-3.0123729E-007
2	1	0	1	0	8.053799796543899E+000	-3.8051257E-001	-3.8045350E-001	9.019547236511650E-004	1.000000000000000E+000	-1.7416305E-006	39	6.398999838347663E+000	-3.4315184E-007
2	1	0	1	0	8.153799794017687E+000	-3.8151240E-001	-3.8146296E-001	7.778382859534612E-004	1.000000000000000E+000	-1.7211569E-006	39	6.498999835821451E+000	-2.9671651E-007
2	0	0	1	0	8.253699791494000E+000	-3.8251287E-001	-3.8246188E-001	8.199123750739900E-004	1.000000000000000E+000	-1.7049875E-006	39	6.598899833297764E+000	-3.1358522E-007
2	1	0	0	0	8.353599788970314E+000	-3.8351205E-001	-3.8346437E-001	7.280085353866296E-004	1.000000000000000E+000	-1.6876825E-006	39	6.698799830774078E+000	-2.7916533E-007
2	1	0	0	0	8.453599786444101E+000	-3.8451189E-001	-3.8445240E-001	1.028173844672520E-003	1.000000000000000E+000	-1.6626685E-006	39	6.798799828247866E+000	-3.9528391E-007
2	1	0	0	0	8.553599783917889E+000	-3.8551176E-001	-3.8544622E-001	9.616389011971108E-004	1.000000000000000E+000	-1.6279282E-006	39	6.898799825721653E+000	-3.7066008E-007
2	0	0	0	0	8.653599781391677E+000	-3.8651156E-001	-3.8645631E-001	1.033472507738562E-003	1.000000000000000E+000	-1.5913928E-006	39	6.998799823195441E+000	-3.9939198E-007
2	1	0	0	0	8.753599778865464E+000	-3.8751140E-001	-3.8743290E-001	7.962888127403187E-004	1.000000000000000E+000	-1.5671554E-006	39	7.098799820669228E+000	-3.0850848E-007
2	1	0	0	0	8.853599776339252E+000	-3.8851121E-001	-3.8844562E-001	9.446927043275815E-004	1.000000000000000E+000	-1.5441436E-006	39	7.198799818143016E+000	-3.6696173E-007
2	1	0	0	0	8.953599773813039E+000	-3.8951105E-001	-3.8945127E-001	8.938668403630883E-004	1.000000000000000E+000	-1.5176126E-006	39	7.298799815616803E+000	-3.4811757E-007
2	1	0	0	0	9.053599771286827E+000	-3.9051089E-001	-3.9043596E-001	9.233726909948713E-004	1.000000000000000E+000	-1.4961856E-006	39	7.398799813090591E+000	-3.6051790E-007
2	1	0	0	0	9.153599768760614E+000	-3.9151070E-001	-3.9145395E-001	9.335500458291773E-004	1.000000000000000E+000	-1.4737933E-006	39	7.498799810564378E+000	-3.6544185E-007
2	1	0	0	0	9.253599766234402E+000	-3.9251056E-001	-3.9243606E-001	1.079697768074293E-003	1.000000000000000E+000	-1.4440037E-006	39	7.598799808038166E+000	-4.2371232E-007
2	1	0	0	0	9.353599763708189E+000	-3.9351040E-001	-3.9344260E-001	9.456492599737333E-004	1.000000000000000E+000	-1.4113364E-006	39	7.698799805511953E+000	-3.7205871E-007
2	1	0	1	0	9.453499761184503E+000	-3.9451107E-001	-3.9445129E-001	9.363333250291491E-004	1.000000000000000E+000	-1.3861890E-006	39	7.798699802988267E+000	-3.6933790E-007
2	1	0	1	0	9.553399758660817E+000	-3.9551005E-001	-3.9546302E-001	1.043675490479845E-003	1.000000000000000E+000	-1.3557272E-006	39	7.898599800464581E+000	-4.1273506E-007
2	1	0	1	0	9.653399756134604E+000	-3.9650989E-001	-3.9644837E-001	8.896790851943490E-004	1.000000000000000E+000	-1.3293645E-006	39	7.998599797938368E+000	-3.5271182E-007
2	1	0	1	0	9.753399753608392E+000	-3.9750975E-001	-3.9743942E-001	8.960639275725451E-004	1.000000000000000E+000	-1.3048050E-006	39	8.098599795412156E+000	-3.5613112E-007
2	1	0	1	0	9.853399751082179E+000	-3.9850956E-001	-3.9845228E-001	8.619096842839673E-004	1.000000000000000E+000	-1.2794186E-006	39	8.198599792885943E+000	-3.4342989E-007
2	1	0	1	0	9.953399748555967E+000	-3.9950940E-001	-3.9945367E-001	1.000352430958596E-003	1.000000000000000E+000	-1.2553413E-006	39	8.298599790359731E+000	-3.9959446E-007
2	1	0	1	0	1.005339974602975E+001	-4.0050918E-001	-4.0045235E-001	8.113175335929985E-004	1.000000000000000E+000	-1.2330522E-006	39	8.398599787833518E+000	-3.2489402E-007
2	1	0	1	0	1.015339974350354E+001	-4.0150902E-001	-4.0144998E-001	9.649318985541161E-004	1.000000000000000E+000	-1.2082360E-006	39	8.498599785307306E+000	-3.8737190E-007
2	1	0	1	0	1.025339974097733E+001	-4.0250888E-001	-4.0246221E-001	8.414446829045109E-004	1.000000000000000E+000	-1.1830430E-006	39	8.598599782781093E+000	-3.3864970E-007
2	1	0	1	0	1.035339973845112E+001	-4.0350869E-001	-4.0345323E-001	8.890217173816266E-004	1.000000000000000E+000	-1.1595628E-006	39	8.698599780254881E+000	-3.5867868E-007
2	1	0	1	0	1.045339973592490E+001	-4.0450853E-001	-4.0445530E-001	8.870945397726863E-004	1.000000000000000E+000	-1.1371131E-006	39	8.798599777728668E+000	-3.5879009E-007
2	1	0	1	0	1.055329973340122E+001	-4.0550745E-001	-4.0546048E-001	9.471367019151487E-004	1.000000000000000E+000	-1.1089139E-006	39	8.898499775204982E+000	-3.8402649E-007
2	1	0	0	0	1.065319973087753E+001	-4.0650818E-001	-4.0646049E-001	7.721046270929739E-004	1.000000000000000E+000	-1.0850879E-006	39	8.998399772681296E+000	-3.1383001E-007
2	1	0	0	0	1.075319972835132E+001	-4.0750805E-001	-4.0743628E-001	9.247563045783440E-004	1.000000000000000E+000	-1.0671232E-006	39	9.098399770155083E+000	-3.7677927E-007
2	1	0	0	0	1.085319972582511E+001	-4.0850788E-001	-4.0846801E-001	8.806117290600102E-004	1.000000000000000E+000	-1.0459589E-006	39	9.198399767628871E+000	-3.5970172E-007
2	1	0	0	0	1.095319972329889E+001	-4.0950769E-001	-4.0945989E-001	9.145215665816516E-004	1.000000000000000E+000	-1.0228323E-006	39	9.298399765102658E+000	-3.7445989E-007
2	1	0	0	0	1.105319972077268E+001	-4.1050750E-001	-4.1047558E-001	9.130135671305759E-004	1.000000000000000E+000	-9.9652766E-007	39	9.398399762576446E+000	-3.7476977E-007
2	1	0	0	0	1.115319971824647E+001	-4.1150737E-001	-4.1146150E-001	8.688540343529082E-004	1.000000000000000E+000	-9.7200086E-007	39	9.498399760050233E+000	-3.5750000E-007
2	1	0	0	0	1.125319971572026E+001	-4.1250718E-001	-4.1246572E-001	7.787515402621244E-004	1.000000000000000E+000	-9.5281553E-007	39	9.598399757524021E+000	-3.2120832E-007
2	1	0	0	0	1.135319971319404E+001	-4.1350701E-001	-4.1347009E-001	8.882389617728805E-004	1.000000000000000E+000	-9.3251890E-007	39	9.698399754997808E+000	-3.6726024E-007
2	1	0	0	0	1.145319971066783E+001	-4.1450682E-001	-4.1446856E-001	7.721080267662768E-004	1.000000000000000E+000	-9.1638896E-007	39	9.798399752471596E+000	-3.2001449E-007
2	1	0	0	0	1.155319970814162E+001	-4.1550669E-001	-4.1546321E-001	7.982971026257854E-004	1.000000000000000E+000	-9.0306548E-007	39	9.898399749945384E+000	-3.3166307E-007
2	1	0	0	0	1.165319970561541E+001	-4.1650653E-001	-4.1646418E-001	8.272921755713442E-004	1.000000000000000E+000	-8.8412446E-007	39	9.998399747419171E+000	-3.4453757E-007
2	1	0	1	0	1.175309970309172E+001	-4.1750547E-001	-4.1744348E-001	8.693680271953312E-004	1.000000000000000E+000	-8.6361956E-007	39	1.009829974489548E+001	-3.6291200E-007
2	1	0	1	0	1.185299970056803E+001	-4.1850618E-001	-4.1845602E-001	7.728501514992301E-004	1.000000000000000E+000	-8.4328980E-007	39	1.019819974237180E+001	-3.2340381E-007
2	1	0	1	0	1.195299969804182E+001	-4.1950601E-001	-4.1945294E-001	8.206478132727385E-004	1.000000000000000E+000	-8.2719993E-007	39	1.029819973984559E+001	-3.4422314E-007
2	1	0	1	0	1.205299969551561E+001	-4.2050585E-001	-4.2046586E-001	8.332552020786158E-004	1.000000000000000E+000	-8.1056834E-007	39	1.039819973731937E+001	-3.5035535E-007
2	1	0	1	0	1.215299969298940E+001	-4.2150566E-001	-4.2146534E-001	8.299807600700162E-004	1.000000000000000E+000	-7.8671792E-007	39	1.049819973479316E+001	-3.4980812E-007
2	1	0	1	0	1.225299969046318E+001	-4.2250550E-001	-4.2247358E-001	8.155617750465610E-004	1.000000000000000E+000	-7.6625759E-007	39	1.059819973226695E+001	-3.4455331E-007
2	1	0	1	0	1.235299968793697E+001	-4.2350531E-001	-4.2347440E-001	8.274615227653222E-004	1.000000000000000E+000	-7.4800420E-007	39	1.069819972974074E+001	-3.5040878E-007
2	1	0	1	0	1.245299968541076E+001	-4.2450514E-001	-4.2446011E-001	6.756815882024755E-004	1.000000000000000E+000	-7.3383706E-007	39	1.079819972721452E+001	-2.8679989E-007
2	1	0	1	0	1.255299968288455E+001	-4.2550501E-001	-4.2546406E-001	6.420947141821103E-004	1.000000000000000E+000	-7.2854078E-007	39	1.089819972468831E+001	-2.7318822E-007
2	1	0	1	0	1.265299968035833E+001	-4.2650485E-001	-4.2646274E-001	8.693446315006690E-004	1.000000000000000E+000	-7.1329237E-007	39	1.099819972216210E+001	-3.7074309E-007
2	1	0	1	0	1.275299967783212E+001	-4.2750466E-001	-4.2745405E-001	8.247384896464920E-004	1.000000000000000E+000	-6.9268054E-007	39	1.109819971963589E+001	-3.5253782E-007
2	1	0	1	0	1.284799967543222E+001	-4.2845446E-001	-4.2840034E-001	8.387500659618255E-004	1.000000000000000E+000	-6.8095636E-007	39	1.119319971723598E+001	-3.5932081E-007
2	1	0	1	0	1.288999967437121E+001	-4.2895430E-001	-4.2889592E-001	-2.404101809952409E-003	1.000000000000000E+000	-6.7936179E-007	39	1.123519971617498E+001	1.0311095E-006