mode	ox/red	error	control changes	Ns changes	counter inc.	Ns	time/s	control/V	Ewe/V	<I>/mA	dQ/C	(Q-Qo)/C	I Range	Q charge/discharge/mA.h	half cycle	Energy charge/W.h	Energy discharge/W.h	Capacitance charge/µF	Capacitance discharge/µF	step time/s	Q discharge/mA.h	Q charge/mA.h	Capacity/mA.h	Efficiency/%	cycle number	P/W	
2	1	1	0	0	0	0	2.467999937653076E-001	-2.9996943E-001	-4.5804787E-001	-2.499526064160680E-001	-6.1688304E-005	-6.1688304E-005	41	-1.713563992124465E-005	0	0.000000000000000E+000	7.848943401179821E-009	0.000000000000000E+000	0.000000000000000E+000	2.467999937653076E-001	1.713563992124465E-005	0.000000000000000E+000	1.713563992124465E-005	0.0000000E+000	0.000000000000000E+000	1.1449026E-004
2	1	1	0	0	0	0	3.697999906580662E-001	-2.9996943E-001	-2.9628921E-001	5.777306267158766E-002	-5.4582219E-005	-5.4582219E-005	41	1.973913034631146E-006	2	5.848490349088728E-010	0.000000000000000E+000	0.000000000000000E+000	0.000000000000000E+000	0.000000000000000E+000	0.000000000000000E+000	1.973913034631146E-006	1.973913034631146E-006	0.0000000E+000	1.000000000000000E+000	-1.7117534E-005
2	1	1	0	0	0	0	4.697999881318538E-001	-2.9996943E-001	-3.0038363E-001	1.994342556297779E-001	-3.4638790E-005	-3.4638790E-005	41	7.513753448923427E-006	2	2.248926680289628E-009	0.000000000000000E+000	6.606430240344721E+003	0.000000000000000E+000	9.999999747378752E-002	0.000000000000000E+000	7.513753448923427E-006	7.513753448923427E-006	0.0000000E+000	1.000000000000000E+000	-5.9906786E-005
2	1	0	0	0	0	0	5.697999856056413E-001	-2.9996943E-001	-3.0035695E-001	7.885239718854398E-002	-2.6753551E-005	-2.6753551E-005	41	9.704097858319679E-006	2	2.906811785543604E-009	0.000000000000000E+000	8.588227576543508E+003	0.000000000000000E+000	1.999999949475750E-001	0.000000000000000E+000	9.704097858319679E-006	9.704097858319679E-006	0.0000000E+000	1.000000000000000E+000	-2.3683866E-005
2	1	0	0	0	0	0	6.697999830794288E-001	-2.9996943E-001	-3.0037981E-001	3.865117235109211E-002	-2.2888435E-005	-2.2888435E-005	41	1.077774155046791E-005	2	3.229312570096438E-009	0.000000000000000E+000	9.485112601724488E+003	0.000000000000000E+000	2.999999924213625E-001	0.000000000000000E+000	1.077774155046791E-005	1.077774155046791E-005	0.0000000E+000	1.000000000000000E+000	-1.1610032E-005
2	1	0	0	0	0	0	7.697999805532163E-001	-2.9996943E-001	-3.0032247E-001	2.142587912827731E-002	-2.0745847E-005	-2.0745847E-005	41	1.137290485668927E-005	2	3.408053462400165E-009	0.000000000000000E+000	1.015118821258885E+004	0.000000000000000E+000	3.999999898951501E-001	0.000000000000000E+000	1.137290485668927E-005	1.137290485668927E-005	0.0000000E+000	1.000000000000000E+000	-6.4346732E-006
2	1	0	0	0	0	0	8.697999780270038E-001	-2.9996943E-001	-3.0033398E-001	1.239796489104630E-002	-1.9506049E-005	-1.9506049E-005	41	1.171729277012249E-005	2	3.511484956035302E-009	0.000000000000000E+000	1.042883563605216E+004	0.000000000000000E+000	4.999999873689376E-001	0.000000000000000E+000	1.171729277012249E-005	1.171729277012249E-005	0.0000000E+000	1.000000000000000E+000	-3.7235302E-006
2	1	0	0	0	0	0	9.697999755007913E-001	-2.9996943E-001	-3.0032635E-001	7.059226707555349E-003	-1.8800127E-005	-1.8800127E-005	41	1.191338239447213E-005	2	3.570375824574563E-009	0.000000000000000E+000	1.062340109551707E+004	0.000000000000000E+000	5.999999848427251E-001	0.000000000000000E+000	1.191338239447213E-005	1.191338239447213E-005	0.0000000E+000	1.000000000000000E+000	-2.1200717E-006
2	1	0	0	0	0	0	1.069799972974579E+000	-2.9996943E-001	-3.0033398E-001	3.640259949956093E-003	-1.8436102E-005	-1.8436102E-005	41	1.201450072346617E-005	2	3.600745033542663E-009	0.000000000000000E+000	1.069336200370017E+004	0.000000000000000E+000	6.999999823165126E-001	0.000000000000000E+000	1.201450072346617E-005	1.201450072346617E-005	0.0000000E+000	1.000000000000000E+000	-1.0932938E-006
2	1	0	0	0	0	0	1.169799970448366E+000	-2.9996943E-001	-3.0033776E-001	1.309009862726498E-003	-1.8305200E-005	-1.8305200E-005	41	1.205086210686035E-005	2	3.611665794548781E-009	0.000000000000000E+000	1.071569780106797E+004	0.000000000000000E+000	7.999999797903001E-001	0.000000000000000E+000	1.205086210686035E-005	1.205086210686035E-005	0.0000000E+000	1.000000000000000E+000	-3.9314509E-007
2	0	0	0	0	0	0	1.269799967922154E+000	-2.9996943E-001	-3.0036458E-001	-3.543397130192716E-004	-1.8340634E-005	-1.8340634E-005	41	-9.842769004106336E-009	3	3.611665794548781E-009	2.956414639646774E-012	1.071569780106797E+004	0.000000000000000E+000	0.000000000000000E+000	9.842769004106336E-009	0.000000000000000E+000	9.842769004106336E-009	0.0000000E+000	1.000000000000000E+000	1.0643110E-007
2	0	0	0	0	0	0	1.369799965395941E+000	-2.9996943E-001	-3.0030721E-001	-1.580721043195812E-003	-1.8498706E-005	-1.8498706E-005	41	-5.375168412842871E-008	3	3.611665794548781E-009	1.614257058942979E-011	1.071569780106797E+004	3.372979754754403E+003	9.999999747378752E-002	5.375168412842871E-008	0.000000000000000E+000	5.375168412842871E-008	0.0000000E+000	1.000000000000000E+000	4.7470192E-007
2	0	0	0	0	0	0	1.469799962869729E+000	-2.9996943E-001	-3.0030715E-001	-2.486498008714991E-003	-1.8747356E-005	-1.8747356E-005	41	-1.228210672575440E-007	3	3.611665794548781E-009	3.688465183254182E-011	1.071569780106797E+004	7.699163538172531E+003	1.999999949475750E-001	1.228210672575440E-007	0.000000000000000E+000	1.228210672575440E-007	0.0000000E+000	1.000000000000000E+000	7.4671317E-007
2	0	0	0	0	0	0	1.569799960343516E+000	-2.9996943E-001	-3.0032635E-001	-3.002590470248832E-003	-1.9047615E-005	-1.9047615E-005	41	-2.062263491984848E-007	3	3.611665794548781E-009	6.193343439024769E-011	1.071569780106797E+004	1.941645271928272E+004	2.999999924213625E-001	2.062263491984848E-007	0.000000000000000E+000	2.062263491984848E-007	0.0000000E+000	1.000000000000000E+000	9.0175701E-007
2	0	0	0	0	0	0	1.669799957817304E+000	-2.9996943E-001	-3.0034927E-001	-3.071282763266936E-003	-1.9354744E-005	-1.9354744E-005	41	-2.915397489929448E-007	3	3.611665794548781E-009	8.755732188820432E-011	1.071569780106797E+004	6.851521879060507E+004	3.999999898951501E-001	2.915397489929448E-007	0.000000000000000E+000	2.915397489929448E-007	0.0000000E+000	1.000000000000000E+000	9.2245750E-007
2	1	0	0	0	0	0	1.769799955291091E+000	-2.9996943E-001	-3.0037987E-001	-4.508017572952680E-004	-1.9399824E-005	-1.9399824E-005	41	-3.040620188000957E-007	3	3.611665794548781E-009	9.131874660102874E-011	1.071569780106797E+004	7.159739181481076E+004	4.999999873689376E-001	3.040620188000957E-007	0.000000000000000E+000	3.040620188000957E-007	2.5231557E+000	1.000000000000000E+000	1.3541178E-007
2	1	0	0	0	0	0	1.869799952764879E+000	-2.9996943E-001	-3.0028811E-001	9.033459334168582E-003	-1.8496477E-005	-1.8496477E-005	41	2.509294377458798E-007	4	7.535117203317285E-011	0.000000000000000E+000	0.000000000000000E+000	0.000000000000000E+000	0.000000000000000E+000	0.000000000000000E+000	2.509294377458798E-007	2.509294377458798E-007	0.0000000E+000	2.000000000000000E+000	-2.7126405E-006
2	1	0	0	0	0	0	1.969799950238667E+000	-2.9996943E-001	-3.0034539E-001	2.394983947835863E-002	-1.6101494E-005	-1.6101494E-005	41	9.162027416880138E-007	4	2.751628940886429E-010	0.000000000000000E+000	5.758251058223855E+004	0.000000000000000E+000	9.999999747378752E-002	0.000000000000000E+000	9.162027416880138E-007	9.162027416880138E-007	0.0000000E+000	2.000000000000000E+000	-7.1932241E-006
2	1	0	0	0	0	0	2.069799947712454E+000	-2.9996943E-001	-3.0035689E-001	4.226604417711488E-002	-1.1874889E-005	-1.1874889E-005	41	2.090259520246440E-006	4	6.277989660934696E-010	0.000000000000000E+000	1.093998680086926E+005	0.000000000000000E+000	1.999999949475750E-001	0.000000000000000E+000	2.090259520246440E-006	2.090259520246440E-006	0.0000000E+000	2.000000000000000E+000	-1.2694898E-005
2	1	0	0	0	0	0	2.169799945186242E+000	-2.9996943E-001	-3.0033016E-001	4.272593339532615E-002	-7.6022957E-006	-7.6022957E-006	41	3.277091037391478E-006	4	9.842402913369310E-010	0.000000000000000E+000	2.805523331956503E+005	0.000000000000000E+000	2.999999924213625E-001	0.000000000000000E+000	3.277091037391478E-006	3.277091037391478E-006	0.0000000E+000	2.000000000000000E+000	-1.2831886E-005
2	1	0	0	0	0	0	2.269799942660029E+000	-2.9996943E-001	-3.0033398E-001	2.492855624482032E-002	-5.1094403E-006	-5.1094403E-006	41	3.969550924388589E-006	4	1.192209506919886E-009	0.000000000000000E+000	3.115696527787931E+005	0.000000000000000E+000	3.999999898951501E-001	0.000000000000000E+000	3.969550924388589E-006	3.969550924388589E-006	0.0000000E+000	2.000000000000000E+000	-7.4868926E-006
2	1	0	0	0	0	0	2.369799940133817E+000	-2.9996943E-001	-3.0030334E-001	1.166183985583484E-002	-3.9432562E-006	-3.9432562E-006	41	4.293490915209987E-006	4	1.289489780870915E-009	0.000000000000000E+000	1.014943906546600E+006	0.000000000000000E+000	4.999999873689376E-001	0.000000000000000E+000	4.293490915209987E-006	4.293490915209987E-006	0.0000000E+000	2.000000000000000E+000	-3.5020894E-006
2	1	0	0	0	0	0	2.469799937607604E+000	-2.9996943E-001	-3.0037981E-001	5.120822303928435E-003	-3.4311738E-006	-3.4311738E-006	41	4.435735984795935E-006	4	1.332217336670804E-009	0.000000000000000E+000	1.741368103017347E+005	0.000000000000000E+000	5.999999848427251E-001	0.000000000000000E+000	4.435735984795935E-006	4.435735984795935E-006	0.0000000E+000	2.000000000000000E+000	-1.5381917E-006
2	1	0	0	0	0	0	2.569799935081392E+000	-2.9996943E-001	-3.0033395E-001	1.340095398354150E-003	-3.2971643E-006	-3.2971643E-006	41	4.472960856455038E-006	4	1.343397225868487E-009	0.000000000000000E+000	3.513105196538988E+005	0.000000000000000E+000	6.999999823165126E-001	0.000000000000000E+000	4.472960856455038E-006	4.472960856455038E-006	0.0000000E+000	2.000000000000000E+000	-4.0247613E-007
2	0	0	0	0	0	0	2.669799932555179E+000	-2.9996943E-001	-3.0034545E-001	-1.335453724675063E-003	-3.4307097E-006	-3.4307097E-006	41	-3.709593462344346E-008	5	1.343397225868487E-009	1.114160041710856E-011	3.513105196538988E+005	0.000000000000000E+000	0.000000000000000E+000	3.709593462344346E-008	0.000000000000000E+000	3.709593462344346E-008	0.0000000E+000	2.000000000000000E+000	4.0109745E-007
2	0	0	0	0	0	0	2.769799930028967E+000	-2.9996943E-001	-3.0029193E-001	-3.006578993052254E-003	-3.7313675E-006	-3.7313675E-006	41	-1.206120120723679E-007	5	1.343397225868487E-009	3.622079778554994E-011	3.513105196538988E+005	8.112162141912921E+003	9.999999747378752E-002	1.206120120723679E-007	0.000000000000000E+000	1.206120120723679E-007	0.0000000E+000	2.000000000000000E+000	9.0285141E-007
2	0	0	0	0	0	0	2.869799927502754E+000	-2.9996943E-001	-3.0035689E-001	-3.949994323309516E-003	-4.1263670E-006	-4.1263670E-006	41	-2.303340662607147E-007	5	1.343397225868487E-009	6.917657873975528E-011	3.513105196538988E+005	7.245683215901855E+004	1.999999949475750E-001	2.303340662607147E-007	0.000000000000000E+000	2.303340662607147E-007	0.0000000E+000	2.000000000000000E+000	1.1864080E-006
2	0	0	0	0	0	0	2.969799924976542E+000	-2.9996943E-001	-3.0038363E-001	-3.795719881542026E-003	-4.5059387E-006	-4.5059387E-006	41	-3.357707208927978E-007	5	1.343397225868487E-009	1.008480022763026E-010	3.513105196538988E+005	3.166256437036543E+004	2.999999924213625E-001	3.357707208927978E-007	0.000000000000000E+000	3.357707208927978E-007	0.0000000E+000	2.000000000000000E+000	1.1401721E-006
2	0	0	0	0	0	0	3.069799922450329E+000	-2.9996943E-001	-3.0036449E-001	-2.479560547100856E-003	-4.7538952E-006	-4.7538952E-006	41	-4.046473943230669E-007	5	1.343397225868487E-009	1.215361449791605E-010	3.513105196538988E+005	7.649416043262274E+004	3.999999898951501E-001	4.046473943230669E-007	0.000000000000000E+000	4.046473943230669E-007	9.0465221E+000	2.000000000000000E+000	7.4477197E-007
2	1	0	0	0	0	0	3.169799919924117E+000	-2.9996943E-001	-3.0037987E-001	8.353298171005008E-004	-4.6703622E-006	-4.6703622E-006	41	2.320360637981550E-008	6	6.969897378479684E-012	0.000000000000000E+000	0.000000000000000E+000	0.000000000000000E+000	0.000000000000000E+000	0.000000000000000E+000	2.320360637981550E-008	2.320360637981550E-008	0.0000000E+000	3.000000000000000E+000	-2.5091626E-007
2	1	0	0	0	0	0	3.269799917397904E+000	-2.9996943E-001	-3.0038369E-001	4.560441937297585E-003	-4.2143179E-006	-4.2143179E-006	41	1.498825430806694E-007	6	4.502219331564791E-011	0.000000000000000E+000	1.414469137440204E+005	0.000000000000000E+000	9.999999747378752E-002	0.000000000000000E+000	1.498825430806694E-007	1.498825430806694E-007	0.0000000E+000	3.000000000000000E+000	-1.3698824E-006
2	1	0	0	0	0	0	3.369799914871692E+000	-2.9996943E-001	-3.0031484E-001	6.792477869428694E-003	-3.5350699E-006	-3.5350699E-006	41	3.385624786206387E-007	6	1.016855923910728E-010	0.000000000000000E+000	1.874288634274044E+004	0.000000000000000E+000	1.999999949475750E-001	0.000000000000000E+000	3.385624786206387E-007	3.385624786206387E-007	0.0000000E+000	3.000000000000000E+000	-2.0398820E-006
2	1	0	0	0	0	0	3.469799912345479E+000	-2.9996943E-001	-3.0040279E-001	5.594540128018716E-003	-2.9756159E-006	-2.9756159E-006	41	4.939663765500579E-007	6	1.483693596866858E-010	0.000000000000000E+000	7.759316032775959E+004	0.000000000000000E+000	2.999999924213625E-001	0.000000000000000E+000	4.939663765500579E-007	4.939663765500579E-007	0.0000000E+000	3.000000000000000E+000	-1.6806155E-006
2	1	0	0	0	0	0	3.569799909819267E+000	-2.9996943E-001	-3.0030343E-001	2.107983917685032E-003	-2.7648175E-006	-2.7648175E-006	41	5.525214827876350E-007	6	1.659536571800884E-010	0.000000000000000E+000	2.602041336524473E+004	0.000000000000000E+000	3.999999898951501E-001	0.000000000000000E+000	5.525214827876350E-007	5.525214827876350E-007	0.0000000E+000	3.000000000000000E+000	-6.3303480E-007
2	0	0	0	0	0	0	3.669799907293054E+000	-2.9996943E-001	-3.0030715E-001	-1.131818695158243E-003	-2.8779993E-006	-2.8779993E-006	41	-3.143940558596292E-008	7	1.659536571800884E-010	9.441476823846754E-012	2.602041336524473E+004	0.000000000000000E+000	0.000000000000000E+000	3.143940558596292E-008	0.000000000000000E+000	3.143940558596292E-008	0.0000000E+000	3.000000000000000E+000	3.3989326E-007
2	0	0	0	0	0	0	3.769799904766842E+000	-2.9996943E-001	-3.0033016E-001	-2.996033424278718E-003	-3.1776028E-006	-3.1776028E-006	41	-1.146625470506263E-007	7	1.659536571800884E-010	3.443590987163403E-011	2.602041336524473E+004	1.794141437389294E+004	9.999999747378752E-002	1.146625470506263E-007	0.000000000000000E+000	1.146625470506263E-007	0.0000000E+000	3.000000000000000E+000	8.9979920E-007
2	0	0	0	0	0	0	3.869799902240629E+000	-2.9996943E-001	-3.0030343E-001	-3.518689537886539E-003	-3.5294718E-006	-3.5294718E-006	41	-2.124039156524493E-007	7	1.659536571800884E-010	6.378797982490809E-011	2.602041336524473E+004	2.052602710356628E+005	1.999999949475750E-001	2.124039156524493E-007	0.000000000000000E+000	2.124039156524493E-007	0.0000000E+000	3.000000000000000E+000	1.0566746E-006
2	0	0	0	0	0	0	3.969799899714417E+000	-2.9996943E-001	-3.0036840E-001	-3.822045792359861E-003	-3.9116762E-006	-3.9116762E-006	41	-3.185718459472090E-007	7	1.659536571800884E-010	9.567746373604892E-011	2.602041336524473E+004	1.872612673042353E+004	2.999999924213625E-001	3.185718459472090E-007	0.000000000000000E+000	3.185718459472090E-007	0.0000000E+000	3.000000000000000E+000	1.1480217E-006
2	0	0	0	0	0	0	4.069799897188204E+000	-2.9996943E-001	-3.0030334E-001	-4.021170864813031E-003	-4.3137934E-006	-4.3137934E-006	41	-4.302710255640693E-007	7	1.659536571800884E-010	1.292211104232373E-010	2.602041336524473E+004	4.060546838116826E+005	3.999999898951501E-001	4.302710255640693E-007	0.000000000000000E+000	4.302710255640693E-007	0.0000000E+000	3.000000000000000E+000	1.2075710E-006
2	0	0	0	0	0	0	4.169799894661992E+000	-2.9996943E-001	-3.0031866E-001	-4.179047888610512E-003	-4.7316980E-006	-4.7316980E-006	41	-5.463556807546802E-007	7	1.659536571800884E-010	1.640834875911134E-010	2.602041336524473E+004	1.709781252220411E+005	4.999999873689376E-001	5.463556807546802E-007	0.000000000000000E+000	5.463556807546802E-007	0.0000000E+000	3.000000000000000E+000	1.2550461E-006
2	0	0	0	0	0	0	4.269799892135779E+000	-2.9996943E-001	-3.0033398E-001	-4.115338164381699E-003	-5.1432316E-006	-5.1432316E-006	41	-6.606706131049564E-007	7	1.659536571800884E-010	1.984161344097016E-010	2.602041336524473E+004	8.867370864731427E+004	5.999999848427251E-001	6.606706131049564E-007	0.000000000000000E+000	6.606706131049564E-007	0.0000000E+000	3.000000000000000E+000	1.2359759E-006
2	0	0	0	0	0	0	4.369799889609567E+000	-2.9996943E-001	-3.0035308E-001	-4.167316229548329E-003	-5.5599635E-006	-5.5599635E-006	41	-7.764293824613951E-007	7	1.659536571800884E-010	2.331846595956635E-010	2.602041336524473E+004	6.086277021399763E+004	6.999999823165126E-001	7.764293824613951E-007	0.000000000000000E+000	7.764293824613951E-007	0.0000000E+000	3.000000000000000E+000	1.2516663E-006
2	0	0	0	0	0	0	4.469799887083354E+000	-2.9996943E-001	-3.0032247E-001	-4.284954556263980E-003	-5.9884587E-006	-5.9884587E-006	41	-8.954558823911295E-007	7	1.659536571800884E-010	2.689309791754082E-010	2.602041336524473E+004	2.104425071068003E+005	7.999999797903001E-001	8.954558823911295E-007	0.000000000000000E+000	8.954558823911295E-007	0.0000000E+000	3.000000000000000E+000	1.2868682E-006
2	0	0	0	0	0	0	4.569799884557142E+000	-2.9996943E-001	-3.0031484E-001	-4.348444746341556E-003	-6.4233031E-006	-6.4233031E-006	41	-1.016246006162482E-006	7	1.659536571800884E-010	3.052060444758475E-010	2.602041336524473E+004	4.758077791960547E+005	8.999999772640876E-001	1.016246006162482E-006	0.000000000000000E+000	1.016246006162482E-006	0.0000000E+000	3.000000000000000E+000	1.3059025E-006
2	0	0	0	0	0	0	4.669799882030929E+000	-2.9996943E-001	-3.0033776E-001	-4.316672760993248E-003	-6.8549703E-006	-6.8549703E-006	41	-1.136153572922631E-006	7	1.659536571800884E-010	3.412188032928018E-010	2.602041336524473E+004	1.336346213194568E+005	9.999999747378752E-001	1.136153572922631E-006	0.000000000000000E+000	1.136153572922631E-006	0.0000000E+000	3.000000000000000E+000	1.2964598E-006
2	0	0	0	0	0	0	4.769799879504717E+000	-2.9996943E-001	-3.0035308E-001	-4.379159988835465E-003	-7.2928865E-006	-7.2928865E-006	41	-1.257796897046534E-006	7	1.659536571800884E-010	3.777547733101185E-010	2.602041336524473E+004	9.859622169132516E+004	1.099999972211663E+000	1.257796897046534E-006	0.000000000000000E+000	1.257796897046534E-006	0.0000000E+000	3.000000000000000E+000	1.3152942E-006
2	0	0	0	0	0	0	4.869799876978504E+000	-2.9996943E-001	-3.0033776E-001	-4.478467435576020E-003	-7.7407331E-006	-7.7407331E-006	41	-1.382198752458370E-006	7	1.659536571800884E-010	4.151173381267278E-010	2.602041336524473E+004	1.625745068933370E+005	1.199999969685450E+000	1.382198752458370E-006	0.000000000000000E+000	1.382198752458370E-006	0.0000000E+000	3.000000000000000E+000	1.3450529E-006
2	0	0	0	0	0	0	4.969799874452292E+000	-2.9996943E-001	-3.0031484E-001	-4.571076118852949E-003	-8.1978405E-006	-8.1978405E-006	41	-1.509173073053729E-006	7	1.659536571800884E-010	4.532496059833574E-010	2.602041336524473E+004	7.065969105490102E+005	1.299999967159238E+000	1.509173073053729E-006	0.000000000000000E+000	1.509173073053729E-006	0.0000000E+000	3.000000000000000E+000	1.3727620E-006
2	0	0	0	0	0	0	5.069799871926080E+000	-2.9996943E-001	-3.0031103E-001	-4.530055685434520E-003	-8.6508462E-006	-8.6508462E-006	41	-1.635007942028816E-006	7	1.659536571800884E-010	4.910392166612840E-010	2.602041336524473E+004	1.519248816284285E+006	1.399999964633025E+000	1.635007942028816E-006	0.000000000000000E+000	1.635007942028816E-006	0.0000000E+000	3.000000000000000E+000	1.3604257E-006
2	0	0	0	0	0	0	5.169799869399867E+000	-2.9996943E-001	-3.0032635E-001	-4.535671552177531E-003	-9.1044130E-006	-9.1044130E-006	41	-1.760998802749188E-006	7	1.659536571800884E-010	5.288775689839280E-010	2.602041336524473E+004	3.303129386399760E+005	1.499999962106813E+000	1.760998802749188E-006	0.000000000000000E+000	1.760998802749188E-006	0.0000000E+000	3.000000000000000E+000	1.3621817E-006
2	0	0	0	0	0	0	5.269799866873655E+000	-2.9996943E-001	-3.0034167E-001	-4.588621191214770E-003	-9.5632749E-006	-9.5632749E-006	41	-1.888460487500513E-006	7	1.659536571800884E-010	5.671596103366172E-010	2.602041336524473E+004	1.969934269819362E+005	1.599999959580600E+000	1.888460487500513E-006	0.000000000000000E+000	1.888460487500513E-006	0.0000000E+000	3.000000000000000E+000	1.3781541E-006
2	0	0	0	0	0	0	5.369799864347442E+000	-2.9996943E-001	-3.0031872E-001	-4.531272616703066E-003	-1.0016402E-005	-1.0016402E-005	41	-2.014329163640279E-006	7	1.659536571800884E-010	6.049603553729078E-010	2.602041336524473E+004	6.271206582709913E+005	1.699999957054388E+000	2.014329163640279E-006	0.000000000000000E+000	2.014329163640279E-006	0.0000000E+000	3.000000000000000E+000	1.3608260E-006
2	0	0	0	0	0	0	5.469799861821230E+000	-2.9996943E-001	-3.0032253E-001	-4.480898606590941E-003	-1.0464492E-005	-1.0464492E-005	41	-2.138798556133439E-006	7	1.659536571800884E-010	6.423413216254646E-010	2.602041336524473E+004	5.006942142800767E+005	1.799999954528175E+000	2.138798556133439E-006	0.000000000000000E+000	2.138798556133439E-006	0.0000000E+000	3.000000000000000E+000	1.3457148E-006
2	0	0	0	0	0	0	5.569799859295017E+000	-2.9996943E-001	-3.0030334E-001	-3.801137396600096E-003	-1.0844607E-005	-1.0844607E-005	41	-2.244385699571480E-006	7	1.659536571800884E-010	6.740495351054588E-010	2.602041336524473E+004	2.118068081382477E+006	1.899999952001963E+000	2.244385699571480E-006	0.000000000000000E+000	2.244385699571480E-006	0.0000000E+000	3.000000000000000E+000	1.1414943E-006
2	0	0	0	0	0	0	5.669799856768805E+000	-2.9996943E-001	-3.0031484E-001	-2.011751959042157E-003	-1.1045781E-005	-1.1045781E-005	41	-2.300267695691534E-006	7	1.659536571800884E-010	6.908316934163838E-010	2.602041336524473E+004	1.076988502002953E+006	1.999999949475750E+000	2.300267695691534E-006	0.000000000000000E+000	2.300267695691534E-006	4.1632187E+002	3.000000000000000E+000	6.0415897E-007
2	1	0	0	0	0	0	5.769799854242592E+000	-2.9996943E-001	-3.0032253E-001	1.925699107288438E-003	-1.0853211E-005	-1.0853211E-005	41	5.349163998060819E-008	8	1.606475628714915E-011	0.000000000000000E+000	0.000000000000000E+000	0.000000000000000E+000	0.000000000000000E+000	0.000000000000000E+000	5.349163998060819E-008	5.349163998060819E-008	0.0000000E+000	4.000000000000000E+000	-5.7833086E-007
2	1	0	0	0	0	0	5.869799851716380E+000	-2.9996943E-001	-3.0035689E-001	8.198017370887101E-003	-1.0033410E-005	-1.0033410E-005	41	2.812143410021817E-007	8	8.446279958671430E-011	0.000000000000000E+000	2.946188632896537E+004	0.000000000000000E+000	9.999999747378752E-002	0.000000000000000E+000	2.812143410021817E-007	2.812143410021817E-007	0.0000000E+000	4.000000000000000E+000	-2.4623309E-006
2	1	0	0	0	0	0	5.969799849190167E+000	-2.9996943E-001	-3.0027661E-001	1.731097425892941E-002	-8.3023124E-006	-8.3023124E-006	41	7.620747623327463E-007	8	2.288539469677639E-010	0.000000000000000E+000	5.973753981167883E+004	0.000000000000000E+000	1.999999949475750E-001	0.000000000000000E+000	7.620747623327463E-007	7.620747623327463E-007	0.0000000E+000	4.000000000000000E+000	-5.1980805E-006
2	1	0	0	0	0	0	6.069799846663955E+000	-2.9996943E-001	-3.0030343E-001	2.134313056990504E-002	-6.1679993E-006	-6.1679993E-006	41	1.354939486312345E-006	8	4.068932591737176E-010	0.000000000000000E+000	2.553373002921951E+005	0.000000000000000E+000	2.999999924213625E-001	0.000000000000000E+000	1.354939486312345E-006	1.354939486312345E-006	0.0000000E+000	4.000000000000000E+000	-6.4094152E-006
2	1	0	0	0	0	0	6.169799844137742E+000	-2.9996943E-001	-3.0033395E-001	1.550446365587414E-002	-4.6175528E-006	-4.6175528E-006	41	1.785619021753860E-006	8	5.362409617189174E-010	0.000000000000000E+000	5.631737737755799E+005	0.000000000000000E+000	3.999999898951501E-001	0.000000000000000E+000	1.785619021753860E-006	1.785619021753860E-006	0.0000000E+000	4.000000000000000E+000	-4.6565169E-006
2	1	0	0	0	0	0	6.269799841611530E+000	-2.9996943E-001	-3.0035308E-001	9.188742619007817E-003	-3.6986785E-006	-3.6986785E-006	41	2.040861879525475E-006	8	6.129039429317784E-010	0.000000000000000E+000	2.405149855302899E+005	0.000000000000000E+000	4.999999873689376E-001	0.000000000000000E+000	2.040861879525475E-006	2.040861879525475E-006	0.0000000E+000	4.000000000000000E+000	-2.7598671E-006
2	0	0	0	0	0	0	6.369799839085317E+000	-2.9996943E-001	-3.0032629E-001	1.926576909066165E-003	-3.5060209E-006	-3.5060209E-006	41	2.094377905346455E-006	8	6.289762029246817E-010	0.000000000000000E+000	2.007876028778573E+006	0.000000000000000E+000	5.999999848427251E-001	0.000000000000000E+000	2.094377905346455E-006	2.094377905346455E-006	0.0000000E+000	4.000000000000000E+000	-5.7860171E-007
2	0	0	0	0	0	0	6.469799836559105E+000	-2.9996943E-001	-3.0033395E-001	-3.869272636715333E-003	-3.8929479E-006	-3.8929479E-006	41	-1.074797870306711E-007	9	6.289762029246817E-010	3.227981028393946E-011	2.007876028778573E+006	0.000000000000000E+000	0.000000000000000E+000	1.074797870306711E-007	0.000000000000000E+000	1.074797870306711E-007	0.0000000E+000	4.000000000000000E+000	1.1620739E-006
2	0	0	0	0	0	0	6.569799834032892E+000	-2.9996943E-001	-3.0037218E-001	-3.554411185905337E-003	-4.2483894E-006	-4.2483894E-006	41	-2.062134228051743E-007	9	6.289762029246817E-010	6.193667761568499E-011	2.007876028778573E+006	1.941523568418745E+004	9.999999747378752E-002	2.062134228051743E-007	0.000000000000000E+000	2.062134228051743E-007	0.0000000E+000	4.000000000000000E+000	1.0676463E-006
2	0	0	0	0	0	0	6.669799831506680E+000	-2.9996943E-001	-3.0031103E-001	-3.111626491881907E-003	-4.5595516E-006	-4.5595516E-006	41	-2.926474826074101E-007	9	6.289762029246817E-010	8.789374766919319E-011	2.007876028778573E+006	4.596961274179128E+004	1.999999949475750E-001	2.926474826074101E-007	0.000000000000000E+000	2.926474826074101E-007	0.0000000E+000	4.000000000000000E+000	9.3445573E-007
2	0	0	0	0	0	0	6.769799828980467E+000	-2.9996943E-001	-3.0029953E-001	-3.196071065962314E-003	-4.8791590E-006	-4.8791590E-006	41	-3.814272281791394E-007	9	6.289762029246817E-010	1.145542854795742E-010	2.007876028778573E+006	3.989165919237013E+004	2.999999924213625E-001	3.814272281791394E-007	0.000000000000000E+000	3.814272281791394E-007	0.0000000E+000	4.000000000000000E+000	9.5977862E-007
2	0	0	0	0	0	0	6.869799826454255E+000	-2.9996943E-001	-3.0028042E-001	-3.496159661561256E-003	-5.2287746E-006	-5.2287746E-006	41	-4.785427673486993E-007	9	6.289762029246817E-010	1.437161583796481E-010	2.007876028778573E+006	3.218598590531042E+004	3.999999898951501E-001	4.785427673486993E-007	0.000000000000000E+000	4.785427673486993E-007	0.0000000E+000	4.000000000000000E+000	1.0498283E-006
2	0	0	0	0	0	0	6.969799823928042E+000	-2.9996943E-001	-3.0035308E-001	-3.908570473548034E-003	-5.6196318E-006	-5.6196318E-006	41	-5.871141599749939E-007	9	6.289762029246817E-010	1.763259233754359E-010	2.007876028778573E+006	1.104688719090732E+005	4.999999873689376E-001	5.871141599749939E-007	0.000000000000000E+000	5.871141599749939E-007	0.0000000E+000	4.000000000000000E+000	1.1739512E-006
2	0	0	0	0	0	0	7.069799821401830E+000	-2.9996943E-001	-3.0031484E-001	-4.252604631241410E-003	-6.0448924E-006	-6.0448924E-006	41	-7.052420478753952E-007	9	6.289762029246817E-010	2.118015004745616E-010	2.007876028778573E+006	1.329023195324688E+005	5.999999848427251E-001	7.052420478753952E-007	0.000000000000000E+000	7.052420478753952E-007	0.0000000E+000	4.000000000000000E+000	1.2771203E-006
2	0	0	0	0	0	0	7.169799818875617E+000	-2.9996943E-001	-3.0034158E-001	-3.976467005908486E-003	-6.4425390E-006	-6.4425390E-006	41	-8.156994467006169E-007	9	6.289762029246817E-010	2.449764421851478E-010	2.007876028778573E+006	3.848952883605958E+005	6.999999823165126E-001	8.156994467006169E-007	0.000000000000000E+000	8.156994467006169E-007	0.0000000E+000	4.000000000000000E+000	1.1942984E-006
2	0	0	0	0	0	0	7.269799816349405E+000	-2.9996943E-001	-3.0040279E-001	-3.324654559139162E-003	-6.7750043E-006	-6.7750043E-006	41	-9.080509535916564E-007	9	6.289762029246817E-010	2.727190849239802E-010	2.007876028778573E+006	4.748436463609308E+004	7.999999797903001E-001	9.080509535916564E-007	0.000000000000000E+000	9.080509535916564E-007	0.0000000E+000	4.000000000000000E+000	9.9873546E-007
2	1	0	0	0	0	0	7.369799813823192E+000	-2.9996943E-001	-3.0031103E-001	-9.614000499846048E-004	-6.8711443E-006	-6.8711443E-006	41	-9.347565085307425E-007	9	6.289762029246817E-010	2.807390541580096E-010	2.007876028778573E+006	1.468332969146788E+005	8.999999772640876E-001	9.347565085307425E-007	0.000000000000000E+000	9.347565085307425E-007	4.4631702E+001	4.000000000000000E+000	2.8871904E-007
2	1	0	0	0	0	0	7.469799811296980E+000	-2.9996943E-001	-3.0035695E-001	2.278330762804218E-003	-6.6433113E-006	-6.6433113E-006	41	6.328696749609549E-008	10	1.900867140192964E-011	0.000000000000000E+000	0.000000000000000E+000	0.000000000000000E+000	0.000000000000000E+000	0.000000000000000E+000	6.328696749609549E-008	6.328696749609549E-008	0.0000000E+000	5.000000000000000E+000	-6.8431251E-007
2	1	0	0	0	0	0	7.569799808770767E+000	-2.9996943E-001	-3.0032635E-001	4.947563176508993E-003	-6.1485548E-006	-6.1485548E-006	41	2.007192780581589E-007	10	6.028322855063018E-011	0.000000000000000E+000	2.360864354439114E+004	0.000000000000000E+000	9.999999747378752E-002	0.000000000000000E+000	2.007192780581589E-007	2.007192780581589E-007	0.0000000E+000	5.000000000000000E+000	-1.4858836E-006
2	1	0	0	0	0	0	7.669799806244555E+000	-2.9996943E-001	-3.0032247E-001	5.185644628480077E-003	-5.6299905E-006	-5.6299905E-006	41	3.447649627000069E-007	10	1.035433727532727E-010	0.000000000000000E+000	3.599499826174564E+004	0.000000000000000E+000	1.999999949475750E-001	0.000000000000000E+000	3.447649627000069E-007	3.447649627000069E-007	0.0000000E+000	5.000000000000000E+000	-1.5573656E-006
2	1	0	0	0	0	0	7.769799803718342E+000	-2.9996943E-001	-3.0029956E-001	3.342265835497529E-003	-5.2957639E-006	-5.2957639E-006	41	4.376056769378667E-007	10	1.314233978238355E-010	0.000000000000000E+000	2.744599986845910E+004	0.000000000000000E+000	2.999999924213625E-001	0.000000000000000E+000	4.376056769378667E-007	4.376056769378667E-007	0.0000000E+000	5.000000000000000E+000	-1.0036809E-006
2	1	0	0	0	0	0	7.869799801192130E+000	-2.9996943E-001	-3.0027661E-001	1.057257443379058E-003	-5.1900379E-006	-5.1900379E-006	41	4.669739393574320E-007	10	1.402420238705911E-010	0.000000000000000E+000	2.092305751416464E+004	0.000000000000000E+000	3.999999898951501E-001	0.000000000000000E+000	4.669739393574320E-007	4.669739393574320E-007	0.0000000E+000	5.000000000000000E+000	-3.1746967E-007
2	0	0	0	0	0	0	7.969799798665917E+000	-2.9996943E-001	-3.0032635E-001	-7.270760609590071E-004	-5.2627456E-006	-5.2627456E-006	41	-2.019655476533453E-008	11	1.402420238705911E-010	6.065569016625441E-012	2.092305751416464E+004	0.000000000000000E+000	0.000000000000000E+000	2.019655476533453E-008	0.000000000000000E+000	2.019655476533453E-008	0.0000000E+000	5.000000000000000E+000	2.1836010E-007
2	0	0	0	0	0	0	8.069799796139705E+000	-2.9996943E-001	-3.0035686E-001	-1.800819904659877E-003	-5.4428278E-006	-5.4428278E-006	41	-7.021932635057571E-008	11	1.402420238705911E-010	2.109027247126476E-011	2.092305751416464E+004	8.283408789080393E+003	9.999999747378752E-002	7.021932635057571E-008	0.000000000000000E+000	7.021932635057571E-008	0.0000000E+000	5.000000000000000E+000	5.4088861E-007
2	0	0	0	0	0	0	8.169799793613493E+000	-2.9996943E-001	-3.0034164E-001	-2.359027622733274E-003	-5.6787303E-006	-5.6787303E-006	41	-1.357478680116503E-007	11	1.402420238705911E-010	4.077119784978397E-011	2.092305751416464E+004	3.196450951818874E+004	1.999999949475750E-001	1.357478680116503E-007	0.000000000000000E+000	1.357478680116503E-007	0.0000000E+000	5.000000000000000E+000	7.0851422E-007
2	0	0	0	0	0	0	8.269799791087280E+000	-2.9996943E-001	-3.0034158E-001	-2.673003649804745E-003	-5.9460308E-006	-5.9460308E-006	41	-2.099979651006834E-007	11	1.402420238705911E-010	6.307160101055147E-011	2.092305751416464E+004	4.964169233736462E+004	2.999999924213625E-001	2.099979651006834E-007	0.000000000000000E+000	2.099979651006834E-007	0.0000000E+000	5.000000000000000E+000	8.0281416E-007
2	0	0	0	0	0	0	8.369799788561068E+000	-2.9996943E-001	-3.0033398E-001	-2.830922565190120E-003	-6.2291228E-006	-6.2291228E-006	41	-2.886346963998929E-007	11	1.402420238705911E-010	8.668886794631133E-011	2.092305751416464E+004	1.361949369354963E+005	3.999999898951501E-001	2.886346963998929E-007	0.000000000000000E+000	2.886346963998929E-007	0.0000000E+000	5.000000000000000E+000	8.5022225E-007
2	0	0	0	0	0	0	8.469799786034855E+000	-2.9996943E-001	-3.0033776E-001	-2.838891459628940E-003	-6.5130121E-006	-6.5130121E-006	41	-3.674927870162417E-007	11	1.402420238705911E-010	1.103729383153089E-010	2.092305751416464E+004	1.159050711141960E+005	4.999999873689376E-001	3.674927870162417E-007	0.000000000000000E+000	3.674927870162417E-007	0.0000000E+000	5.000000000000000E+000	8.5262633E-007
2	0	0	0	0	0	0	8.569799783508643E+000	-2.9996943E-001	-3.0031484E-001	-2.915193808963525E-003	-6.8045315E-006	-6.8045315E-006	41	-4.484703863015259E-007	11	1.402420238705911E-010	1.346917192101002E-010	2.092305751416464E+004	1.403456183735902E+005	5.999999848427251E-001	4.484703863015259E-007	0.000000000000000E+000	4.484703863015259E-007	0.0000000E+000	5.000000000000000E+000	8.7547596E-007
2	0	0	0	0	0	0	8.669799780982430E+000	-2.9996943E-001	-3.0031103E-001	-2.994990560226139E-003	-7.1040304E-006	-7.1040304E-006	41	-5.316645594755048E-007	11	1.402420238705911E-010	1.596758349137811E-010	2.092305751416464E+004	1.249473313381922E+005	6.999999823165126E-001	5.316645594755048E-007	0.000000000000000E+000	5.316645594755048E-007	0.0000000E+000	5.000000000000000E+000	8.9942870E-007
2	0	0	0	0	0	0	8.769799778456218E+000	-2.9996943E-001	-3.0034927E-001	-3.062508095987144E-003	-7.4102813E-006	-7.4102813E-006	41	-6.167342232205457E-007	11	1.402420238705911E-010	1.852264607905586E-010	2.092305751416464E+004	9.687776280683464E+004	7.999999797903001E-001	6.167342232205457E-007	0.000000000000000E+000	6.167342232205457E-007	0.0000000E+000	5.000000000000000E+000	9.1982207E-007
2	0	0	0	0	0	0	8.869799775930005E+000	-2.9996943E-001	-3.0032253E-001	-3.135700400453058E-003	-7.7238510E-006	-7.7238510E-006	41	-7.038370051371004E-007	11	1.402420238705911E-010	2.113853602146795E-010	2.092305751416464E+004	6.642239323487761E+005	8.999999772640876E-001	7.038370051371004E-007	0.000000000000000E+000	7.038370051371004E-007	0.0000000E+000	5.000000000000000E+000	9.4172151E-007
2	0	0	0	0	0	0	8.969799773403793E+000	-2.9996943E-001	-3.0037218E-001	-3.199985457118601E-003	-8.0438494E-006	-8.0438494E-006	41	-7.927254840034647E-007	11	1.402420238705911E-010	2.380849792533374E-010	2.092305751416464E+004	6.226139925330354E+004	9.999999747378752E-001	7.927254840034647E-007	0.000000000000000E+000	7.927254840034647E-007	0.0000000E+000	5.000000000000000E+000	9.6118663E-007
2	0	0	0	0	0	0	9.069799770877580E+000	-2.9996943E-001	-3.0034918E-001	-3.275969068519772E-003	-8.3714467E-006	-8.3714467E-006	41	-8.837246171381394E-007	11	1.402420238705911E-010	2.654165259220500E-010	2.092305751416464E+004	1.393607823250076E+005	1.099999972211663E+000	8.837246171381394E-007	0.000000000000000E+000	8.837246171381394E-007	0.0000000E+000	5.000000000000000E+000	9.8393457E-007
2	0	0	0	0	0	0	9.169799768351368E+000	-2.9996943E-001	-3.0029571E-001	-3.369999658782041E-003	-8.7084463E-006	-8.7084463E-006	41	-9.773357139074001E-007	11	1.402420238705911E-010	2.935275092953312E-010	2.092305751416464E+004	1.148426080861073E+005	1.199999969685450E+000	9.773357139074001E-007	0.000000000000000E+000	9.773357139074001E-007	0.0000000E+000	5.000000000000000E+000	1.0119965E-006
2	0	0	0	0	0	0	9.269799765825155E+000	-2.9996943E-001	-3.0029184E-001	-3.453338246326893E-003	-9.0537806E-006	-9.0537806E-006	41	-1.073261765802120E-006	11	1.402420238705911E-010	3.223333564289205E-010	2.092305751416464E+004	1.119565459237528E+005	1.299999967159238E+000	1.073261765802120E-006	0.000000000000000E+000	1.073261765802120E-006	0.0000000E+000	5.000000000000000E+000	1.0370093E-006
2	0	0	0	0	0	0	9.369799763298943E+000	-2.9996943E-001	-3.0034927E-001	-3.522920733317739E-003	-9.4060724E-006	-9.4060724E-006	41	-1.171120667144705E-006	11	1.402420238705911E-010	3.517251904032108E-010	2.092305751416464E+004	1.839618200808919E+005	1.399999964633025E+000	1.171120667144705E-006	0.000000000000000E+000	1.171120667144705E-006	0.0000000E+000	5.000000000000000E+000	1.0581067E-006
2	0	0	0	0	0	0	9.469799760772730E+000	-2.9996943E-001	-3.0032253E-001	-3.596119733061641E-003	-9.7656848E-006	-9.7656848E-006	41	-1.271012877140139E-006	11	1.402420238705911E-010	3.817251077822976E-010	2.092305751416464E+004	1.199478238794089E+006	1.499999962106813E+000	1.271012877140139E-006	0.000000000000000E+000	1.271012877140139E-006	0.0000000E+000	5.000000000000000E+000	1.0799957E-006
2	0	0	0	0	0	0	9.569799758246518E+000	-2.9996943E-001	-3.0031484E-001	-3.599216422066093E-003	-1.0125606E-005	-1.0125606E-005	41	-1.370991104411941E-006	11	1.402420238705911E-010	4.117500531499333E-010	2.092305751416464E+004	4.290419171713557E+005	1.599999959580600E+000	1.370991104411941E-006	0.000000000000000E+000	1.370991104411941E-006	0.0000000E+000	5.000000000000000E+000	1.0808981E-006
2	0	0	0	0	0	0	9.669799755720305E+000	-2.9996943E-001	-3.0035308E-001	-3.474244166631254E-003	-1.0473031E-005	-1.0473031E-005	41	-1.467497879316044E-006	11	1.402420238705911E-010	4.407361483841521E-010	2.092305751416464E+004	1.976229744548003E+005	1.699999957054388E+000	1.467497879316044E-006	0.000000000000000E+000	1.467497879316044E-006	0.0000000E+000	5.000000000000000E+000	1.0435000E-006
2	0	0	0	0	0	0	9.769799753194093E+000	-2.9996943E-001	-3.0033016E-001	-3.018706381553788E-003	-1.0774901E-005	-1.0774901E-005	41	-1.551350827270805E-006	11	1.402420238705911E-010	4.659196989632533E-010	2.092305751416464E+004	1.464038320550680E+006	1.799999954528175E+000	1.551350827270805E-006	0.000000000000000E+000	1.551350827270805E-006	0.0000000E+000	5.000000000000000E+000	9.0660859E-007
2	0	0	0	0	0	0	9.869799750667880E+000	-2.9996943E-001	-3.0033016E-001	-1.761608609231188E-003	-1.0951062E-005	-1.0951062E-005	41	-1.600284395325667E-006	11	1.402420238705911E-010	4.806159331689617E-010	2.092305751416464E+004	1.510217829101705E+006	1.899999952001963E+000	1.600284395325667E-006	0.000000000000000E+000	1.600284395325667E-006	3.4269244E+002	5.000000000000000E+000	5.2906421E-007
2	1	0	0	0	0	0	9.969799748141668E+000	-2.9996943E-001	-3.0032626E-001	1.105081351261101E-003	-1.0840554E-005	-1.0840554E-005	41	3.069670510714987E-008	12	9.219027856867073E-012	0.000000000000000E+000	0.000000000000000E+000	0.000000000000000E+000	0.000000000000000E+000	0.000000000000000E+000	3.069670510714987E-008	3.069670510714987E-008	0.0000000E+000	6.000000000000000E+000	-3.3188493E-007
2	1	0	0	0	0	0	1.006979974561546E+001	-2.9996943E-001	-3.0031484E-001	5.741105384193358E-003	-1.0266443E-005	-1.0266443E-005	41	1.901718586003275E-007	12	5.711176633235293E-011	0.000000000000000E+000	5.997908958690834E+004	0.000000000000000E+000	9.999999747378752E-002	0.000000000000000E+000	1.901718586003275E-007	1.901718586003275E-007	0.0000000E+000	6.000000000000000E+000	-1.7241391E-006
2	1	0	0	0	0	0	1.016979974308924E+001	-2.9996943E-001	-3.0036068E-001	1.150539798475802E-002	-9.1159036E-006	-9.1159036E-006	41	5.097662423057348E-007	12	1.531053626584350E-010	0.000000000000000E+000	5.331402611951158E+004	0.000000000000000E+000	1.999999949475750E-001	0.000000000000000E+000	5.097662423057348E-007	5.097662423057348E-007	0.0000000E+000	6.000000000000000E+000	-3.4557690E-006
2	1	0	0	0	0	0	1.026979974056303E+001	-2.9996943E-001	-3.0027282E-001	1.546899943985042E-002	-7.5690036E-006	-7.5690036E-006	41	9.394606745018386E-007	12	2.821309234454694E-010	0.000000000000000E+000	6.329227526452085E+004	0.000000000000000E+000	2.999999924213625E-001	0.000000000000000E+000	9.394606745018386E-007	9.394606745018386E-007	0.0000000E+000	6.000000000000000E+000	-4.6449200E-006
2	1	0	0	0	0	0	1.036979973803682E+001	-2.9996943E-001	-3.0028430E-001	1.319355749152601E-002	-6.2496479E-006	-6.2496479E-006	41	1.305948375563124E-006	12	3.921814279232231E-010	0.000000000000000E+000	1.120406828608209E+005	0.000000000000000E+000	3.999999898951501E-001	0.000000000000000E+000	1.305948375563124E-006	1.305948375563124E-006	0.0000000E+000	6.000000000000000E+000	-3.9618180E-006
2	1	0	0	0	0	0	1.046979973551061E+001	-2.9996943E-001	-3.0033398E-001	9.188374018296613E-003	-5.3308104E-006	-5.3308104E-006	41	1.561180986975513E-006	12	4.688364601961159E-010	0.000000000000000E+000	7.281248979219532E+005	0.000000000000000E+000	4.999999873689376E-001	0.000000000000000E+000	1.561180986975513E-006	1.561180986975513E-006	0.0000000E+000	6.000000000000000E+000	-2.7595809E-006
2	0	0	0	0	0	0	1.056979973298439E+001	-2.9996943E-001	-3.0029956E-001	3.105030303788218E-003	-5.0203075E-006	-5.0203075E-006	41	1.647431826056921E-006	12	4.947375350101979E-010	0.000000000000000E+000	2.221016752850737E+005	0.000000000000000E+000	5.999999848427251E-001	0.000000000000000E+000	1.647431826056921E-006	1.647431826056921E-006	0.0000000E+000	6.000000000000000E+000	-9.3243921E-007
2	0	0	0	0	0	0	1.066979973045818E+001	-2.9996943E-001	-3.0031103E-001	-2.368688057293185E-003	-5.2571763E-006	-5.2571763E-006	41	-6.579688354718719E-008	13	4.947375350101979E-010	1.975953141523878E-011	2.221016752850737E+005	0.000000000000000E+000	0.000000000000000E+000	6.579688354718719E-008	0.000000000000000E+000	6.579688354718719E-008	0.0000000E+000	6.000000000000000E+000	7.1134315E-007
2	0	0	0	0	0	0	1.076979972793197E+001	-2.9996943E-001	-3.0029953E-001	-2.976990524679422E-003	-5.5548753E-006	-5.5548753E-006	41	-1.484910560441981E-007	13	4.947375350101979E-010	4.459254949082031E-011	2.221016752850737E+005	4.646922008682808E+004	9.999999747378752E-002	1.484910560441981E-007	0.000000000000000E+000	1.484910560441981E-007	0.0000000E+000	6.000000000000000E+000	8.9398884E-007
2	0	0	0	0	0	0	1.086979972540576E+001	-2.9996943E-001	-3.0036071E-001	-3.053996637463571E-003	-5.8602750E-006	-5.8602750E-006	41	-2.333242918345302E-007	13	4.947375350101979E-010	7.007312303000524E-011	2.221016752850737E+005	1.690739694272084E+004	1.999999949475750E-001	2.333242918345302E-007	0.000000000000000E+000	2.333242918345302E-007	0.0000000E+000	6.000000000000000E+000	9.1730061E-007
2	0	0	0	0	0	0	1.096979972287954E+001	-2.9996943E-001	-3.0036458E-001	-3.303547310177235E-003	-6.1906294E-006	-6.1906294E-006	41	-3.250894880653101E-007	13	4.947375350101979E-010	9.763611211976296E-011	2.221016752850737E+005	2.185280758838516E+004	2.999999924213625E-001	3.250894880653101E-007	0.000000000000000E+000	3.250894880653101E-007	0.0000000E+000	6.000000000000000E+000	9.9226861E-007
2	0	0	0	0	0	0	1.106979972035333E+001	-2.9996943E-001	-3.0031103E-001	-3.583139704540373E-003	-6.5489435E-006	-6.5489435E-006	41	-4.246211376254602E-007	13	4.947375350101979E-010	1.275265762244601E-010	2.221016752850737E+005	0.000000000000000E+000	3.999999898951501E-001	4.246211376254602E-007	0.000000000000000E+000	4.246211376254602E-007	0.0000000E+000	6.000000000000000E+000	1.0760564E-006
2	0	0	0	0	0	0	1.116979971782712E+001	-2.9996943E-001	-3.0037600E-001	-3.852755055297166E-003	-6.9342191E-006	-6.9342191E-006	41	-5.316421049161972E-007	13	4.947375350101979E-010	1.596731157493391E-010	2.221016752850737E+005	2.945881462747278E+004	4.999999873689376E-001	5.316421049161972E-007	0.000000000000000E+000	5.316421049161972E-007	0.0000000E+000	6.000000000000000E+000	1.1572752E-006
2	0	0	0	0	0	0	1.126979971530091E+001	-2.9996943E-001	-3.0032247E-001	-4.064578425604856E-003	-7.3406768E-006	-7.3406768E-006	41	-6.445470471096796E-007	13	4.947375350101979E-010	1.935810020193948E-010	2.221016752850737E+005	2.027569693410238E+005	5.999999848427251E-001	6.445470471096796E-007	0.000000000000000E+000	6.445470471096796E-007	0.0000000E+000	6.000000000000000E+000	1.2206842E-006
2	0	0	0	0	0	0	1.136979971277469E+001	-2.9996943E-001	-3.0033785E-001	-3.805678096599877E-003	-7.7212444E-006	-7.7212444E-006	41	-7.502603216206706E-007	13	4.947375350101979E-010	2.253306839061275E-010	2.221016752850737E+005	1.006982357764757E+005	6.999999823165126E-001	7.502603216206706E-007	0.000000000000000E+000	7.502603216206706E-007	0.0000000E+000	6.000000000000000E+000	1.1429892E-006
2	0	0	0	0	0	0	1.146979971024848E+001	-2.9996943E-001	-3.0030715E-001	-3.487796537578107E-003	-8.0700238E-006	-8.0700238E-006	41	-8.471435527737613E-007	13	4.947375350101979E-010	2.544253915795852E-010	2.221016752850737E+005	7.871654972986778E+005	7.999999797903001E-001	8.471435527737613E-007	0.000000000000000E+000	8.471435527737613E-007	0.0000000E+000	6.000000000000000E+000	1.0474103E-006
2	0	0	0	0	0	0	1.156979970772227E+001	-2.9996943E-001	-3.0033776E-001	-1.879994384216844E-003	-8.2580236E-006	-8.2580236E-006	41	-8.993656152508466E-007	13	4.947375350101979E-010	2.701096827950024E-010	2.221016752850737E+005	1.211145246022984E+005	8.999999772640876E-001	8.993656152508466E-007	0.000000000000000E+000	8.993656152508466E-007	5.4591976E+001	6.000000000000000E+000	5.6463330E-007
2	1	0	0	0	0	0	1.166979970519606E+001	-2.9996943E-001	-3.0033398E-001	5.337649914936241E-004	-8.2046472E-006	-8.2046472E-006	41	1.482680561677296E-008	14	4.452987222785413E-012	0.000000000000000E+000	0.000000000000000E+000	0.000000000000000E+000	0.000000000000000E+000	0.000000000000000E+000	1.482680561677296E-008	1.482680561677296E-008	0.0000000E+000	7.000000000000000E+000	-1.6030776E-007
2	1	0	0	0	0	0	1.176979970266984E+001	-2.9996943E-001	-3.0030334E-001	2.705902281682934E-003	-7.9340571E-006	-7.9340571E-006	41	8.999075819618440E-008	14	2.702496537737080E-011	0.000000000000000E+000	1.057443540416374E+004	0.000000000000000E+000	9.999999747378752E-002	0.000000000000000E+000	8.999075819618440E-008	8.999075819618440E-008	0.0000000E+000	7.000000000000000E+000	-8.1259151E-007
2	1	0	0	0	0	0	1.186979970014363E+001	-2.9996943E-001	-3.0034167E-001	3.463753838092089E-003	-7.5876815E-006	-7.5876815E-006	41	1.862061417080490E-007	14	5.592247224904299E-011	0.000000000000000E+000	8.718197190593154E+004	0.000000000000000E+000	1.999999949475750E-001	0.000000000000000E+000	1.862061417080490E-007	1.862061417080490E-007	0.0000000E+000	7.000000000000000E+000	-1.0403096E-006
2	1	0	0	0	0	0	1.196979969761742E+001	-2.9996943E-001	-3.0024981E-001	2.517725829151459E-003	-7.3359088E-006	-7.3359088E-006	41	2.561429675016219E-007	14	7.692100100837234E-011	0.000000000000000E+000	1.095645695011366E+004	0.000000000000000E+000	2.999999924213625E-001	0.000000000000000E+000	2.561429675016219E-007	2.561429675016219E-007	0.0000000E+000	7.000000000000000E+000	-7.5594670E-007
2	0	0	0	0	0	0	1.206979969509121E+001	-2.9996943E-001	-3.0029953E-001	9.183173155574882E-004	-7.2440771E-006	-7.2440771E-006	41	2.816517808007953E-007	14	8.458128154151905E-011	0.000000000000000E+000	2.943113831800440E+004	0.000000000000000E+000	3.999999898951501E-001	0.000000000000000E+000	2.816517808007953E-007	2.816517808007953E-007	0.0000000E+000	7.000000000000000E+000	-2.7577025E-007
2	0	0	0	0	0	0	1.216979969256499E+001	-2.9996943E-001	-3.0028424E-001	-4.624239866006978E-004	-7.2903194E-006	-7.2903194E-006	41	-1.284510989166370E-008	15	8.458128154151905E-011	3.857180098956980E-012	2.943113831800440E+004	0.000000000000000E+000	0.000000000000000E+000	1.284510989166370E-008	0.000000000000000E+000	1.284510989166370E-008	0.0000000E+000	7.000000000000000E+000	1.3885864E-007
2	0	0	0	0	0	0	1.226979969003878E+001	-2.9996943E-001	-3.0034167E-001	-1.402860528643943E-003	-7.4306054E-006	-7.4306054E-006	41	-5.181345501210270E-008	15	8.458128154151905E-011	1.556098755011267E-011	2.943113831800440E+004	3.247979133575077E+003	9.999999747378752E-002	5.181345501210270E-008	0.000000000000000E+000	5.181345501210270E-008	0.0000000E+000	7.000000000000000E+000	4.2133746E-007
2	0	0	0	0	0	0	1.236979968751257E+001	-2.9996943E-001	-3.0031103E-001	-1.941710809594951E-003	-7.6247766E-006	-7.6247766E-006	41	-1.057498631559814E-007	15	8.458128154151905E-011	3.175869727288673E-011	2.943113831800440E+004	1.420929447407793E+004	1.999999949475750E-001	1.057498631559814E-007	0.000000000000000E+000	1.057498631559814E-007	0.0000000E+000	7.000000000000000E+000	5.8311718E-007
2	0	0	0	0	0	0	1.246979968498636E+001	-2.9996943E-001	-3.0035308E-001	-2.249485932057732E-003	-7.8497251E-006	-7.8497251E-006	41	-1.682355745916136E-007	15	8.458128154151905E-011	5.052646870986830E-011	2.943113831800440E+004	8.797479191088663E+003	2.999999924213625E-001	1.682355745916136E-007	0.000000000000000E+000	1.682355745916136E-007	0.0000000E+000	7.000000000000000E+000	6.7564002E-007
2	0	0	0	0	0	0	1.256979968246014E+001	-2.9996943E-001	-3.0034927E-001	-2.426954228663818E-003	-8.0924210E-006	-8.0924210E-006	41	-2.356509646065206E-007	15	8.458128154151905E-011	7.077467567706706E-011	2.943113831800440E+004	1.304568440121267E+004	3.999999898951501E-001	2.356509646065206E-007	0.000000000000000E+000	2.356509646065206E-007	0.0000000E+000	7.000000000000000E+000	7.2893391E-007
2	0	0	0	0	0	0	1.266979967993393E+001	-2.9996943E-001	-3.0031484E-001	-2.513604030245918E-003	-8.3437808E-006	-8.3437808E-006	41	-3.054732899324540E-007	15	8.458128154151905E-011	9.174330700913419E-011	2.943113831800440E+004	3.592983237144822E+004	4.999999873689376E-001	3.054732899324540E-007	0.000000000000000E+000	3.054732899324540E-007	0.0000000E+000	7.000000000000000E+000	7.5487259E-007
2	0	0	0	0	0	0	1.276979967740772E+001	-2.9996943E-001	-3.0031484E-001	-2.464658289449292E-003	-8.5902466E-006	-8.5902466E-006	41	-3.739360111404091E-007	15	8.458128154151905E-011	1.123036777470122E-010	2.943113831800440E+004	4.398243198576782E+004	5.999999848427251E-001	3.739360111404091E-007	0.000000000000000E+000	3.739360111404091E-007	0.0000000E+000	7.000000000000000E+000	7.4017345E-007
2	0	0	0	0	0	0	1.286979967488151E+001	-2.9996943E-001	-3.0032635E-001	-2.474552324507391E-003	-8.8377019E-006	-8.8377019E-006	41	-4.426735663450927E-007	15	8.458128154151905E-011	1.329473866151238E-010	2.943113831800440E+004	3.784371994936026E+004	6.999999823165126E-001	4.426735663450927E-007	0.000000000000000E+000	4.426735663450927E-007	0.0000000E+000	7.000000000000000E+000	7.4317325E-007
2	0	0	0	0	0	0	1.296979967235529E+001	-2.9996943E-001	-3.0029193E-001	-2.608187701320276E-003	-9.0985204E-006	-9.0985204E-006	41	-5.151232165918980E-007	15	8.458128154151905E-011	1.547034135194358E-010	2.943113831800440E+004	2.411813992012202E+005	7.999999797903001E-001	5.151232165918980E-007	0.000000000000000E+000	5.151232165918980E-007	0.0000000E+000	7.000000000000000E+000	7.8321773E-007
2	0	0	0	0	0	0	1.306979966982908E+001	-2.9996943E-001	-3.0031103E-001	-2.671287329401820E-003	-9.3656490E-006	-9.3656490E-006	41	-5.893256330953896E-007	15	8.458128154151905E-011	1.769872091403127E-010	2.943113831800440E+004	7.918593189499702E+004	8.999999772640876E-001	5.893256330953896E-007	0.000000000000000E+000	5.893256330953896E-007	0.0000000E+000	7.000000000000000E+000	8.0221707E-007
2	0	0	0	0	0	0	1.316979966730287E+001	-2.9996943E-001	-3.0034539E-001	-2.720822263276204E-003	-9.6377316E-006	-9.6377316E-006	41	-6.649040223125871E-007	15	8.458128154151905E-011	1.996868646109407E-010	2.943113831800440E+004	3.914118737405998E+004	9.999999747378752E-001	6.649040223125871E-007	0.000000000000000E+000	6.649040223125871E-007	0.0000000E+000	7.000000000000000E+000	8.1718645E-007
2	0	0	0	0	0	0	1.326979966477666E+001	-2.9996943E-001	-3.0029187E-001	-2.795935809612276E-003	-9.9173249E-006	-9.9173249E-006	41	-7.425689000662919E-007	15	8.458128154151905E-011	2.230089675958508E-010	2.943113831800440E+004	3.503879671301604E+005	1.099999972211663E+000	7.425689000662919E-007	0.000000000000000E+000	7.425689000662919E-007	0.0000000E+000	7.000000000000000E+000	8.3959679E-007
2	0	0	0	0	0	0	1.336979966225044E+001	-2.9996943E-001	-3.0030343E-001	-2.869411253836010E-003	-1.0204266E-005	-1.0204266E-005	41	-8.222747642961520E-007	15	8.458128154151905E-011	2.469449052668535E-010	2.943113831800440E+004	1.542351950155412E+005	1.199999969685450E+000	8.222747642961520E-007	0.000000000000000E+000	8.222747642961520E-007	0.0000000E+000	7.000000000000000E+000	8.6169405E-007
2	0	0	0	0	0	0	1.346979965972423E+001	-2.9996943E-001	-3.0032253E-001	-2.954662427771843E-003	-1.0499733E-005	-1.0499733E-005	41	-9.043487144660704E-007	15	8.458128154151905E-011	2.715935963553934E-010	2.943113831800440E+004	8.501297027067785E+004	1.299999967159238E+000	9.043487144660704E-007	0.000000000000000E+000	9.043487144660704E-007	0.0000000E+000	7.000000000000000E+000	8.8735169E-007
2	0	0	0	0	0	0	1.356979965719802E+001	-2.9996943E-001	-3.0033016E-001	-3.061215458903470E-003	-1.0805854E-005	-1.0805854E-005	41	-9.893824707976111E-007	15	8.458128154151905E-011	2.971317849851914E-010	2.943113831800440E+004	7.755574342513533E+004	1.399999964633025E+000	9.893824707976111E-007	0.000000000000000E+000	9.893824707976111E-007	0.0000000E+000	7.000000000000000E+000	9.1937534E-007
2	0	0	0	0	0	0	1.366979965467181E+001	-2.9996943E-001	-3.0033016E-001	-3.158092674799263E-003	-1.1121663E-005	-1.1121663E-005	41	-1.077107260852295E-006	15	8.458128154151905E-011	3.234781902422935E-010	2.943113831800440E+004	8.443231695490496E+004	1.499999962106813E+000	1.077107260852295E-006	0.000000000000000E+000	1.077107260852295E-006	0.0000000E+000	7.000000000000000E+000	9.4847047E-007
2	0	0	0	0	0	0	1.376979965214559E+001	-2.9996943E-001	-3.0039132E-001	-3.241313742008062E-003	-1.1445794E-005	-1.1445794E-005	41	-1.167143749287940E-006	15	8.458128154151905E-011	3.505243545440500E-010	2.943113831800440E+004	3.923914390507823E+004	1.599999959580600E+000	1.167143749287940E-006	0.000000000000000E+000	1.167143749287940E-006	0.0000000E+000	7.000000000000000E+000	9.7366251E-007
2	0	0	0	0	0	0	1.386979964961938E+001	-2.9996943E-001	-3.0035686E-001	-3.310519710183143E-003	-1.1776847E-005	-1.1776847E-005	41	-1.259102622365340E-006	15	8.458128154151905E-011	3.781448742782700E-010	2.943113831800440E+004	6.241054737933775E+004	1.699999957054388E+000	1.259102622365340E-006	0.000000000000000E+000	1.259102622365340E-006	0.0000000E+000	7.000000000000000E+000	9.9433737E-007
2	0	0	0	0	0	0	1.396979964709317E+001	-2.9996943E-001	-3.0034927E-001	-3.367780934087932E-003	-1.2113625E-005	-1.2113625E-005	41	-1.352652085668271E-006	15	8.458128154151905E-011	4.062423563788406E-010	2.943113831800440E+004	7.488308924911598E+004	1.799999954528175E+000	1.352652085668271E-006	0.000000000000000E+000	1.352652085668271E-006	0.0000000E+000	7.000000000000000E+000	1.0115106E-006
2	0	0	0	0	0	0	1.406979964456696E+001	-2.9996943E-001	-3.0033776E-001	-3.405891695059844E-003	-1.2454214E-005	-1.2454214E-005	41	-1.447260183496989E-006	15	8.458128154151905E-011	4.346567609637230E-010	2.943113831800440E+004	9.734029860158468E+004	1.899999952001963E+000	1.447260183496989E-006	0.000000000000000E+000	1.447260183496989E-006	0.0000000E+000	7.000000000000000E+000	1.0229179E-006
2	0	0	0	0	0	0	1.416979964204074E+001	-2.9996943E-001	-3.0030334E-001	-3.457632601726800E-003	-1.2799977E-005	-1.2799977E-005	41	-1.543305524904352E-006	15	8.458128154151905E-011	4.634995212329074E-010	2.943113831800440E+004	2.908347348615578E+005	1.999999949475750E+000	1.543305524904352E-006	0.000000000000000E+000	1.543305524904352E-006	0.0000000E+000	7.000000000000000E+000	1.0383386E-006
2	0	0	0	0	0	0	1.426979963951453E+001	-2.9996943E-001	-3.0033007E-001	-3.496290226932618E-003	-1.3149606E-005	-1.3149606E-005	41	-1.640424691872846E-006	15	8.458128154151905E-011	4.926673161627139E-010	2.943113831800440E+004	1.288404860783135E+005	2.099999946949538E+000	1.640424691872846E-006	0.000000000000000E+000	1.640424691872846E-006	0.0000000E+000	7.000000000000000E+000	1.0500411E-006
2	0	0	0	0	0	0	1.436979963698832E+001	-2.9996943E-001	-3.0031484E-001	-3.515767000149946E-003	-1.3501182E-005	-1.3501182E-005	41	-1.738084877629111E-006	15	8.458128154151905E-011	5.219960713775378E-010	2.943113831800440E+004	2.044339075091369E+005	2.199999944423325E+000	1.738084877629111E-006	0.000000000000000E+000	1.738084877629111E-006	0.0000000E+000	7.000000000000000E+000	1.0558371E-006
2	0	0	0	0	0	0	1.446979963446211E+001	-2.9996943E-001	-3.0031866E-001	-3.547355640679609E-003	-1.3855918E-005	-1.3855918E-005	41	-1.836622524380548E-006	15	8.458128154151905E-011	5.515887775264064E-010	2.943113831800440E+004	1.920836122721935E+005	2.299999941897113E+000	1.836622524380548E-006	0.000000000000000E+000	1.836622524380548E-006	0.0000000E+000	7.000000000000000E+000	1.0653371E-006
2	0	0	0	0	0	0	1.456979963193589E+001	-2.9996943E-001	-3.0028811E-001	-3.582538260146977E-003	-1.4214172E-005	-1.4214172E-005	41	-1.936137470204661E-006	15	8.458128154151905E-011	5.814719156083954E-010	2.943113831800440E+004	1.799058270091412E+006	2.399999939370900E+000	1.936137470204661E-006	0.000000000000000E+000	1.936137470204661E-006	0.0000000E+000	7.000000000000000E+000	1.0757936E-006
2	0	0	0	0	0	0	1.466979962940968E+001	-2.9996943E-001	-3.0035308E-001	-3.589992367196829E-003	-1.4573171E-005	-1.4573171E-005	41	-2.035859470263505E-006	15	8.458128154151905E-011	6.114237410290971E-010	2.943113831800440E+004	1.064604282958641E+005	2.499999936844688E+000	2.035859470263505E-006	0.000000000000000E+000	2.035859470263505E-006	0.0000000E+000	7.000000000000000E+000	1.0782653E-006
2	0	0	0	0	0	0	1.476979962688347E+001	-2.9996943E-001	-3.0035689E-001	-3.599870431702585E-003	-1.4933158E-005	-1.4933158E-005	41	-2.135855863383110E-006	15	8.458128154151905E-011	6.414583540488977E-010	2.943113831800440E+004	1.058255739076635E+005	2.599999934318475E+000	2.135855863383110E-006	0.000000000000000E+000	2.135855863383110E-006	0.0000000E+000	7.000000000000000E+000	1.0812460E-006
2	0	0	0	0	0	0	1.486979962435726E+001	-2.9996943E-001	-3.0036455E-001	-3.589707283768812E-003	-1.5292129E-005	-1.5292129E-005	41	-2.235569946372228E-006	15	8.458128154151905E-011	6.714089712867853E-010	2.943113831800440E+004	1.002032679363436E+005	2.699999931792263E+000	2.235569946372228E-006	0.000000000000000E+000	2.235569946372228E-006	0.0000000E+000	7.000000000000000E+000	1.0782209E-006
2	0	0	0	0	0	0	1.496979962183104E+001	-2.9996943E-001	-3.0030343E-001	-3.593616901431234E-003	-1.5651491E-005	-1.5651491E-005	41	-2.335392626954520E-006	15	8.458128154151905E-011	7.013860408582268E-010	2.943113831800440E+004	4.380527688509450E+005	2.799999929266050E+000	2.335392626954520E-006	0.000000000000000E+000	2.335392626954520E-006	0.0000000E+000	7.000000000000000E+000	1.0791755E-006
2	0	0	0	0	0	0	1.506979961930483E+001	-2.9996943E-001	-3.0034927E-001	-3.609893741551788E-003	-1.6012480E-005	-1.6012480E-005	41	-2.435667445244235E-006	15	8.458128154151905E-011	7.315035101337470E-010	2.943113831800440E+004	1.348390355627044E+005	2.899999926739838E+000	2.435667445244235E-006	0.000000000000000E+000	2.435667445244235E-006	0.0000000E+000	7.000000000000000E+000	1.0842290E-006
2	0	0	0	0	0	0	1.516979961677862E+001	-2.9996943E-001	-3.0037987E-001	-3.643679850734771E-003	-1.6376847E-005	-1.6376847E-005	41	-2.536880766670290E-006	15	8.458128154151905E-011	7.619058935619039E-010	2.943113831800440E+004	9.549546133949705E+004	2.999999924213625E+000	2.536880766670290E-006	0.000000000000000E+000	2.536880766670290E-006	0.0000000E+000	7.000000000000000E+000	1.0944881E-006
2	0	0	0	0	0	0	1.526979961425241E+001	-2.9996943E-001	-3.0034158E-001	-3.646199319977315E-003	-1.6741467E-005	-1.6741467E-005	41	-2.638164070817816E-006	15	8.458128154151905E-011	7.923254948846815E-010	2.943113831800440E+004	1.656338611791884E+005	3.099999921687413E+000	2.638164070817816E-006	0.000000000000000E+000	2.638164070817816E-006	0.0000000E+000	7.000000000000000E+000	1.0951053E-006
2	0	0	0	0	0	0	1.536979961172619E+001	-2.9996943E-001	-3.0035308E-001	-3.642061212565748E-003	-1.7105674E-005	-1.7105674E-005	41	-2.739332430486431E-006	15	8.458128154151905E-011	8.227118116268101E-010	2.943113831800440E+004	1.432468733986779E+005	3.199999919161201E+000	2.739332430486431E-006	0.000000000000000E+000	2.739332430486431E-006	0.0000000E+000	7.000000000000000E+000	1.0939043E-006
2	0	0	0	0	0	0	1.546979960919998E+001	-2.9996943E-001	-3.0028051E-001	-3.639174144715070E-003	-1.7469591E-005	-1.7469591E-005	41	-2.840420596309388E-006	15	8.458128154151905E-011	8.530665108261084E-010	2.943113831800440E+004	2.744890552807569E+006	3.299999916634988E+000	2.840420596309388E-006	0.000000000000000E+000	2.840420596309388E-006	0.0000000E+000	7.000000000000000E+000	1.0927731E-006
2	0	0	0	0	0	0	1.556979960667377E+001	-2.9996943E-001	-3.0033016E-001	-3.647679839283227E-003	-1.7834360E-005	-1.7834360E-005	41	-2.941745026251890E-006	15	8.458128154151905E-011	8.834973995117729E-010	2.943113831800440E+004	2.305975992218988E+005	3.399999914108776E+000	2.941745026251890E-006	0.000000000000000E+000	2.941745026251890E-006	0.0000000E+000	7.000000000000000E+000	1.0955083E-006
2	0	0	0	0	0	0	1.566979960414756E+001	-2.9996943E-001	-3.0031872E-001	-3.634033267386258E-003	-1.8197763E-005	-1.8197763E-005	41	-3.042690386615454E-006	15	8.458128154151905E-011	9.138131692659785E-010	2.943113831800440E+004	3.176704335601306E+005	3.499999911582563E+000	3.042690386615454E-006	0.000000000000000E+000	3.042690386615454E-006	0.0000000E+000	7.000000000000000E+000	1.0913682E-006
2	0	0	0	0	0	0	1.576979960162134E+001	-2.9996943E-001	-3.0030715E-001	-3.637111363932501E-003	-1.8561474E-005	-1.8561474E-005	41	-3.143721248626056E-006	15	8.458128154151905E-011	9.441534154215100E-010	2.943113831800440E+004	4.938216009236945E+005	3.599999909056351E+000	3.143721248626056E-006	0.000000000000000E+000	3.143721248626056E-006	0.0000000E+000	7.000000000000000E+000	1.0922506E-006
2	0	0	0	0	0	0	1.586979959909513E+001	-2.9996943E-001	-3.0030334E-001	-3.624420885462318E-003	-1.8923916E-005	-1.8923916E-005	41	-3.244399600915888E-006	15	8.458128154151905E-011	9.743875163783761E-010	2.943113831800440E+004	6.114046003793034E+005	3.699999906530138E+000	3.244399600915888E-006	0.000000000000000E+000	3.244399600915888E-006	0.0000000E+000	7.000000000000000E+000	1.0884257E-006
2	0	0	0	0	0	0	1.596979959656892E+001	-2.9996943E-001	-3.0024990E-001	-3.606428662315014E-003	-1.9284558E-005	-1.9284558E-005	41	-3.344578168194605E-006	15	8.458128154151905E-011	1.004466045887334E-009	2.943113831800440E+004	3.507044397292826E+005	3.799999904003926E+000	3.344578168194605E-006	0.000000000000000E+000	3.344578168194605E-006	0.0000000E+000	7.000000000000000E+000	1.0828298E-006
2	0	0	0	0	0	0	1.606979959404271E+001	-2.9996943E-001	-3.0035308E-001	-3.602048301603641E-003	-1.9644764E-005	-1.9644764E-005	41	-3.444635059252556E-006	15	8.458128154151905E-011	1.034518488753410E-009	2.943113831800440E+004	1.801289966657234E+005	3.899999901477713E+000	3.444635059252556E-006	0.000000000000000E+000	3.444635059252556E-006	0.0000000E+000	7.000000000000000E+000	1.0818864E-006
2	0	0	0	0	0	0	1.616979959151649E+001	-2.9996943E-001	-3.0031866E-001	-3.630580200813714E-003	-2.0007821E-005	-2.0007821E-005	41	-3.545484503738964E-006	15	8.458128154151905E-011	1.064805421233341E-009	2.943113831800440E+004	3.708053569488711E+005	3.999999898951501E+000	3.545484503738964E-006	0.000000000000000E+000	3.545484503738964E-006	0.0000000E+000	7.000000000000000E+000	1.0903310E-006
2	0	0	0	0	0	0	1.626979958899028E+001	-2.9996943E-001	-3.0032247E-001	-3.643619135953487E-003	-2.0372183E-005	-2.0372183E-005	41	-3.646696137867214E-006	15	8.458128154151905E-011	1.095201539865958E-009	2.943113831800440E+004	3.433407196397670E+005	4.099999896425288E+000	3.646696137867214E-006	0.000000000000000E+000	3.646696137867214E-006	0.0000000E+000	7.000000000000000E+000	1.0942607E-006
2	0	0	0	0	0	0	1.636979958646407E+001	-2.9996943E-001	-3.0029953E-001	-3.618606736417861E-003	-2.0734044E-005	-2.0734044E-005	41	-3.747212984309499E-006	15	8.458128154151905E-011	1.125386701950964E-009	2.943113831800440E+004	8.823551106774046E+005	4.199999893899076E+000	3.747212984309499E-006	0.000000000000000E+000	3.747212984309499E-006	0.0000000E+000	7.000000000000000E+000	1.0866659E-006
2	0	0	0	0	0	0	1.646979958393786E+001	-2.9996943E-001	-3.0033398E-001	-3.615596126765016E-003	-2.1095604E-005	-2.1095604E-005	41	-3.847646202240210E-006	15	8.458128154151905E-011	1.155550288042604E-009	2.943113831800440E+004	2.784781894974587E+005	4.299999891372863E+000	3.847646202240210E-006	0.000000000000000E+000	3.847646202240210E-006	0.0000000E+000	7.000000000000000E+000	1.0858863E-006
2	0	0	0	0	0	0	1.656979958141164E+001	-2.9996943E-001	-3.0033776E-001	-3.600311603862788E-003	-2.1455635E-005	-2.1455635E-005	41	-3.947654852884272E-006	15	8.458128154151905E-011	1.185586629896585E-009	2.943113831800440E+004	2.655126607762089E+005	4.399999888846651E+000	3.947654852884272E-006	0.000000000000000E+000	3.947654852884272E-006	0.0000000E+000	7.000000000000000E+000	1.0813095E-006
2	0	0	0	0	0	0	1.666979957888543E+001	-2.9996943E-001	-3.0034164E-001	-3.589658320881428E-003	-2.1814600E-005	-2.1814600E-005	41	-4.047367576310585E-006	15	8.458128154151905E-011	1.215534430742634E-009	2.943113831800440E+004	2.538450843333053E+005	4.499999886320438E+000	4.047367576310585E-006	0.000000000000000E+000	4.047367576310585E-006	0.0000000E+000	7.000000000000000E+000	1.0781239E-006
2	0	0	0	0	0	0	1.676979957635922E+001	-2.9996943E-001	-3.0034167E-001	-3.584400091785941E-003	-2.2173041E-005	-2.2173041E-005	41	-4.146934235747975E-006	15	8.458128154151905E-011	1.245438529095752E-009	2.943113831800440E+004	2.599547909490185E+005	4.599999883794226E+000	4.146934235747975E-006	0.000000000000000E+000	4.146934235747975E-006	0.0000000E+000	7.000000000000000E+000	1.0765447E-006
2	0	0	0	0	0	0	1.686979957383301E+001	-2.9996943E-001	-3.0031103E-001	-3.588423831388354E-003	-2.2531884E-005	-2.2531884E-005	41	-4.246612666040316E-006	15	8.458128154151905E-011	1.275373111490719E-009	2.943113831800440E+004	5.706047089641363E+005	4.699999881268013E+000	4.246612666040316E-006	0.000000000000000E+000	4.246612666040316E-006	0.0000000E+000	7.000000000000000E+000	1.0776432E-006
2	0	0	0	0	0	0	1.696979957130679E+001	-2.9996943E-001	-3.0031484E-001	-3.575218430720273E-003	-2.2889404E-005	-2.2889404E-005	41	-4.345924284252305E-006	15	8.458128154151905E-011	1.305197758034965E-009	2.943113831800440E+004	5.111685249689713E+005	4.799999878741801E+000	4.345924284252305E-006	0.000000000000000E+000	4.345924284252305E-006	0.0000000E+000	7.000000000000000E+000	1.0736911E-006
2	0	0	0	0	0	0	1.706979956878058E+001	-2.9996943E-001	-3.0028042E-001	-3.564898831304163E-003	-2.3245895E-005	-2.3245895E-005	41	-4.444949241647464E-006	15	8.458128154151905E-011	1.334933110254947E-009	2.943113831800440E+004	4.194780386408758E+006	4.899999876215588E+000	4.444949241647464E-006	0.000000000000000E+000	4.444949241647464E-006	0.0000000E+000	7.000000000000000E+000	1.0704694E-006
2	0	0	0	0	0	0	1.716979956625437E+001	-2.9996943E-001	-3.0030721E-001	-3.562060062773535E-003	-2.3602101E-005	-2.3602101E-005	41	-4.543895345861681E-006	15	8.458128154151905E-011	1.364647292773240E-009	2.943113831800440E+004	7.119120345424074E+005	4.999999873689376E+000	4.543895345861681E-006	0.000000000000000E+000	4.543895345861681E-006	0.0000000E+000	7.000000000000000E+000	1.0697123E-006
2	0	0	0	0	0	0	1.726979956372816E+001	-2.9996943E-001	-3.0030334E-001	-3.559627228416504E-003	-2.3958062E-005	-2.3958062E-005	41	-4.642773872171599E-006	15	8.458128154151905E-011	1.394340759358525E-009	2.943113831800440E+004	8.749271523659455E+005	5.099999871163163E+000	4.642773872171599E-006	0.000000000000000E+000	4.642773872171599E-006	0.0000000E+000	7.000000000000000E+000	1.0689679E-006
2	0	0	0	0	0	0	1.736979956120194E+001	-2.9996943E-001	-3.0032247E-001	-3.555048385169353E-003	-2.4313567E-005	-2.4313567E-005	41	-4.741525208908722E-006	15	8.458128154151905E-011	1.423998029697885E-009	2.943113831800440E+004	4.464201611184790E+005	5.199999868636951E+000	4.741525208908722E-006	0.000000000000000E+000	4.741525208908722E-006	0.0000000E+000	7.000000000000000E+000	1.0676609E-006
2	0	0	0	0	0	0	1.746979955867573E+001	-2.9996943E-001	-3.0032635E-001	-3.551842042244978E-003	-2.4668752E-005	-2.4668752E-005	41	-4.840187482013335E-006	15	8.458128154151905E-011	1.453628975097267E-009	2.943113831800440E+004	4.137827814839940E+005	5.299999866110738E+000	4.840187482013335E-006	0.000000000000000E+000	4.840187482013335E-006	0.0000000E+000	7.000000000000000E+000	1.0667118E-006
2	0	0	0	0	0	0	1.756979955614952E+001	-2.9996943E-001	-3.0033398E-001	-3.562990932259709E-003	-2.5025050E-005	-2.5025050E-005	41	-4.939159441902373E-006	15	8.458128154151905E-011	1.483353544966322E-009	2.943113831800440E+004	3.574778206529035E+005	5.399999863584526E+000	4.939159441902373E-006	0.000000000000000E+000	4.939159441902373E-006	0.0000000E+000	7.000000000000000E+000	1.0700873E-006
2	0	0	0	0	0	0	1.766979955362331E+001	-2.9996943E-001	-3.0029193E-001	-3.559523184318097E-003	-2.5381003E-005	-2.5381003E-005	41	-5.038035074942299E-006	15	8.458128154151905E-011	1.513045124276955E-009	2.943113831800440E+004	2.358814958173483E+006	5.499999861058313E+000	5.038035074942299E-006	0.000000000000000E+000	5.038035074942299E-006	0.0000000E+000	7.000000000000000E+000	1.0688960E-006
2	0	0	0	0	0	0	1.776979955109709E+001	-2.9996943E-001	-3.0030724E-001	-3.556069292128095E-003	-2.5736610E-005	-2.5736610E-005	41	-5.136814768550343E-006	15	8.458128154151905E-011	1.542709388043074E-009	2.943113831800440E+004	8.037648272700849E+005	5.599999858532101E+000	5.136814768550343E-006	0.000000000000000E+000	5.136814768550343E-006	0.0000000E+000	7.000000000000000E+000	1.0679133E-006
2	0	0	0	0	0	0	1.786979954857088E+001	-2.9996943E-001	-3.0032247E-001	-3.560070879291743E-003	-2.6092617E-005	-2.6092617E-005	41	-5.235705616167379E-006	15	8.458128154151905E-011	1.572408540109470E-009	2.943113831800440E+004	4.929478262283266E+005	5.699999856005888E+000	5.235705616167379E-006	0.000000000000000E+000	5.235705616167379E-006	0.0000000E+000	7.000000000000000E+000	1.0691693E-006
2	0	0	0	0	0	0	1.796979954604467E+001	-2.9996943E-001	-3.0032244E-001	-3.563192931469531E-003	-2.6448937E-005	-2.6448937E-005	41	-5.334683189266924E-006	15	8.458128154151905E-011	1.602133789432803E-009	2.943113831800440E+004	5.026584645373483E+005	5.799999853479676E+000	5.334683189266924E-006	0.000000000000000E+000	5.334683189266924E-006	0.0000000E+000	7.000000000000000E+000	1.0701068E-006
2	0	0	0	0	0	0	1.806979954351846E+001	-2.9996943E-001	-3.0032626E-001	-3.558853650931270E-003	-2.6804822E-005	-2.6804822E-005	41	-5.433540228089467E-006	15	8.458128154151905E-011	1.631823148721656E-009	2.943113831800440E+004	4.654962283473000E+005	5.899999850953463E+000	5.433540228089467E-006	0.000000000000000E+000	5.433540228089467E-006	0.0000000E+000	7.000000000000000E+000	1.0688173E-006
2	0	0	0	0	0	0	1.816979954099224E+001	-2.9996943E-001	-3.0029961E-001	-3.561567614786335E-003	-2.7160979E-005	-2.7160979E-005	41	-5.532472656038636E-006	15	8.458128154151905E-011	1.661532482477453E-009	2.943113831800440E+004	1.295155657178426E+006	5.999999848427251E+000	5.532472656038636E-006	0.000000000000000E+000	5.532472656038636E-006	0.0000000E+000	7.000000000000000E+000	1.0695373E-006
2	0	0	0	0	0	0	1.826979953846603E+001	-2.9996943E-001	-3.0034927E-001	-3.567642634734518E-003	-2.7517743E-005	-2.7517743E-005	41	-5.631573831437511E-006	15	8.458128154151905E-011	1.691297415769547E-009	2.943113831800440E+004	3.117650505260394E+005	6.099999845901039E+000	5.631573831437511E-006	0.000000000000000E+000	5.631573831437511E-006	0.0000000E+000	7.000000000000000E+000	1.0715388E-006
2	0	0	0	0	0	0	1.836979953593982E+001	-2.9996943E-001	-3.0033776E-001	-3.566257209982725E-003	-2.7874368E-005	-2.7874368E-005	41	-5.730636526437314E-006	15	8.458128154151905E-011	1.721049675796454E-009	2.943113831800440E+004	3.854330251197135E+005	6.199999843374826E+000	5.730636526437314E-006	0.000000000000000E+000	5.730636526437314E-006	0.0000000E+000	7.000000000000000E+000	1.0710817E-006
2	0	0	0	0	0	0	1.846979953341361E+001	-2.9996943E-001	-3.0032253E-001	-3.563441666308800E-003	-2.8230712E-005	-2.8230712E-005	41	-5.829621009044912E-006	15	8.458128154151905E-011	1.750776906659524E-009	2.943113831800440E+004	5.480113916276793E+005	6.299999840848614E+000	5.829621009044912E-006	0.000000000000000E+000	5.829621009044912E-006	0.0000000E+000	7.000000000000000E+000	1.0701818E-006
2	0	0	0	0	0	0	1.856979953088739E+001	-2.9996943E-001	-3.0030724E-001	-3.563732877373698E-003	-2.8587086E-005	-2.8587086E-005	41	-5.928613582970103E-006	15	8.458128154151905E-011	1.780505203732083E-009	2.943113831800440E+004	9.276587315629120E+005	6.399999838322401E+000	5.928613582970103E-006	0.000000000000000E+000	5.928613582970103E-006	0.0000000E+000	7.000000000000000E+000	1.0702148E-006
2	0	0	0	0	0	0	1.866979952836118E+001	-2.9996943E-001	-3.0032253E-001	-3.566052604466685E-003	-2.8943692E-005	-2.8943692E-005	41	-6.027670590499358E-006	15	8.458128154151905E-011	1.810254285935334E-009	2.943113831800440E+004	5.666289701247611E+005	6.499999835796189E+000	6.027670590499358E-006	0.000000000000000E+000	6.027670590499358E-006	0.0000000E+000	7.000000000000000E+000	1.0709659E-006
2	0	0	0	0	0	0	1.876979952583497E+001	-2.9996943E-001	-3.0029956E-001	-3.549397946335377E-003	-2.9298631E-005	-2.9298631E-005	41	-6.126264971895707E-006	15	8.458128154151905E-011	1.839862103876801E-009	2.943113831800440E+004	1.439743247253780E+006	6.599999833269976E+000	6.126264971895707E-006	0.000000000000000E+000	6.126264971895707E-006	0.0000000E+000	7.000000000000000E+000	1.0658827E-006
2	0	0	0	0	0	0	1.886979952330876E+001	-2.9996943E-001	-3.0028430E-001	-3.553233299404383E-003	-2.9653955E-005	-2.9653955E-005	41	-6.224965891446446E-006	15	8.458128154151905E-011	1.869500431595659E-009	2.943113831800440E+004	0.000000000000000E+000	6.699999830743764E+000	6.224965891446446E-006	0.000000000000000E+000	6.224965891446446E-006	0.0000000E+000	7.000000000000000E+000	1.0669802E-006
2	0	0	0	0	0	0	1.896979952078254E+001	-2.9996943E-001	-3.0028805E-001	-3.547795828897507E-003	-3.0008734E-005	-3.0008734E-005	41	-6.323515767769727E-006	15	8.458128154151905E-011	1.899093763274880E-009	2.943113831800440E+004	5.967618182734418E+006	6.799999828217551E+000	6.323515767769727E-006	0.000000000000000E+000	6.323515767769727E-006	0.0000000E+000	7.000000000000000E+000	1.0653607E-006
2	0	0	0	0	0	0	1.906979951825633E+001	-2.9996943E-001	-3.0030343E-001	-3.536122243851428E-003	-3.0362346E-005	-3.0362346E-005	41	-6.421741377117365E-006	15	8.458128154151905E-011	1.928591196091520E-009	2.943113831800440E+004	1.204534757292322E+006	6.899999825691339E+000	6.421741377117365E-006	0.000000000000000E+000	6.421741377117365E-006	0.0000000E+000	7.000000000000000E+000	1.0619096E-006
2	0	0	0	0	0	0	1.916979951573012E+001	-2.9996943E-001	-3.0020776E-001	-3.525668046902865E-003	-3.0714913E-005	-3.0714913E-005	41	-6.519676589828755E-006	15	8.458128154151905E-011	1.957992163544161E-009	2.943113831800440E+004	3.069175998688398E+005	6.999999823165126E+000	6.519676589828755E-006	0.000000000000000E+000	6.519676589828755E-006	0.0000000E+000	7.000000000000000E+000	1.0584329E-006
2	0	0	0	0	0	0	1.926979951320391E+001	-2.9996943E-001	-3.0025369E-001	-3.522961623035371E-003	-3.1067208E-005	-3.1067208E-005	41	-6.617536627824671E-006	15	8.458128154151905E-011	1.987374872122181E-009	2.943113831800440E+004	7.798747883210420E+005	7.099999820638914E+000	6.617536627824671E-006	0.000000000000000E+000	6.617536627824671E-006	0.0000000E+000	7.000000000000000E+000	1.0577822E-006
2	0	0	0	0	0	0	1.936979951067769E+001	-2.9996943E-001	-3.0030343E-001	-3.554928118363023E-003	-3.1422700E-005	-3.1422700E-005	41	-6.716284623041070E-006	15	8.458128154151905E-011	2.017029199720366E-009	2.943113831800440E+004	1.259782634216332E+006	7.199999818112701E+000	6.716284623041070E-006	0.000000000000000E+000	6.716284623041070E-006	0.0000000E+000	7.000000000000000E+000	1.0675572E-006
2	0	0	0	0	0	0	1.946979950815148E+001	-2.9996943E-001	-3.0034927E-001	-3.559159914962959E-003	-3.1778618E-005	-3.1778618E-005	41	-6.815150168007802E-006	15	8.458128154151905E-011	2.046723565112204E-009	2.943113831800440E+004	3.772880725829253E+005	7.299999815586489E+000	6.815150168007802E-006	0.000000000000000E+000	6.815150168007802E-006	0.0000000E+000	7.000000000000000E+000	1.0689911E-006
2	0	0	0	0	0	0	1.956979950562527E+001	-2.9996943E-001	-3.0034921E-001	-3.549230149481455E-003	-3.2133539E-005	-3.2133539E-005	41	-6.913739889053053E-006	15	8.458128154151905E-011	2.076334760736611E-009	2.943113831800440E+004	3.830971623405989E+005	7.399999813060276E+000	6.913739889053053E-006	0.000000000000000E+000	6.913739889053053E-006	0.0000000E+000	7.000000000000000E+000	1.0660085E-006
2	0	0	0	0	0	0	1.966979950309906E+001	-2.9996943E-001	-3.0034927E-001	-3.535129475407309E-003	-3.2487053E-005	-3.2487053E-005	41	-7.011937921913386E-006	15	8.458128154151905E-011	2.105828500829228E-009	2.943113831800440E+004	3.881822818884649E+005	7.499999810534064E+000	7.011937921913386E-006	0.000000000000000E+000	7.011937921913386E-006	0.0000000E+000	7.000000000000000E+000	1.0617736E-006
2	0	0	0	0	0	0	1.976979950057284E+001	-2.9996943E-001	-3.0030721E-001	-3.536344832275072E-003	-3.2840690E-005	-3.2840690E-005	41	-7.110169716963279E-006	15	8.458128154151905E-011	2.135328429746284E-009	2.943113831800440E+004	1.113981507904920E+006	7.599999808007851E+000	7.110169716963279E-006	0.000000000000000E+000	7.110169716963279E-006	0.0000000E+000	7.000000000000000E+000	1.0619899E-006
2	0	0	0	0	0	0	1.986979949804663E+001	-2.9996943E-001	-3.0034545E-001	-3.523374724667523E-003	-3.3193024E-005	-3.3193024E-005	41	-7.208041227210566E-006	15	8.458128154151905E-011	2.164723456708132E-009	2.943113831800440E+004	4.239056597672252E+005	7.699999805481639E+000	7.208041227210566E-006	0.000000000000000E+000	7.208041227210566E-006	0.0000000E+000	7.000000000000000E+000	1.0582296E-006
2	0	0	0	0	0	0	1.996979949552042E+001	-2.9996943E-001	-3.0033016E-001	-3.526741958688955E-003	-3.3545701E-005	-3.3545701E-005	41	-7.306006271425784E-006	15	8.458128154151905E-011	2.194145516227758E-009	2.943113831800440E+004	5.727034433835613E+005	7.799999802955426E+000	7.306006271425784E-006	0.000000000000000E+000	7.306006271425784E-006	0.0000000E+000	7.000000000000000E+000	1.0591870E-006
2	0	0	0	0	0	0	2.006979949299421E+001	-2.9996943E-001	-3.0025750E-001	-3.527370420284566E-003	-3.3898436E-005	-3.3898436E-005	41	-7.403988774770192E-006	15	8.458128154151905E-011	2.223565312550220E-009	2.943113831800440E+004	9.970701185489888E+005	7.899999800429214E+000	7.403988774770192E-006	0.000000000000000E+000	7.403988774770192E-006	0.0000000E+000	7.000000000000000E+000	1.0591194E-006
2	0	0	0	0	0	0	2.016979949046799E+001	-2.9996943E-001	-3.0034158E-001	-3.518314233981072E-003	-3.4250268E-005	-3.4250268E-005	41	-7.501719719867475E-006	15	8.458128154151905E-011	2.252918075940230E-009	2.943113831800440E+004	4.709861742224886E+005	7.999999797903001E+000	7.501719719867475E-006	0.000000000000000E+000	7.501719719867475E-006	0.0000000E+000	7.000000000000000E+000	1.0566961E-006
2	0	0	0	0	0	0	2.026979948794178E+001	-2.9996943E-001	-3.0029193E-001	-3.535649483092129E-003	-3.4603832E-005	-3.4603832E-005	41	-7.599932199765766E-006	15	8.458128154151905E-011	2.282410433822588E-009	2.943113831800440E+004	3.558298719092802E+006	8.099999795376789E+000	7.599932199765766E-006	0.000000000000000E+000	7.599932199765766E-006	0.0000000E+000	7.000000000000000E+000	1.0617269E-006
2	0	0	0	0	0	0	2.036979948541557E+001	-2.9996943E-001	-3.0031097E-001	-3.523885851260282E-003	-3.4956221E-005	-3.4956221E-005	41	-7.697817910923151E-006	15	8.458128154151905E-011	2.311806638263142E-009	2.943113831800440E+004	1.036639094209176E+006	8.199999792850576E+000	7.697817910923151E-006	0.000000000000000E+000	7.697817910923151E-006	0.0000000E+000	7.000000000000000E+000	1.0582615E-006
2	0	0	0	0	0	0	2.046979948288936E+001	-2.9996943E-001	-3.0034158E-001	-3.522048272192480E-003	-3.5308425E-005	-3.5308425E-005	41	-7.795652578424501E-006	15	8.458128154151905E-011	2.341190359681357E-009	2.943113831800440E+004	4.894403844169077E+005	8.299999790324364E+000	7.795652578424501E-006	0.000000000000000E+000	7.795652578424501E-006	0.0000000E+000	7.000000000000000E+000	1.0578175E-006
2	0	0	0	0	0	0	2.056979948036314E+001	-2.9996943E-001	-3.0033398E-001	-3.531755022238944E-003	-3.5661600E-005	-3.5661600E-005	41	-7.893756878595950E-006	15	8.458128154151905E-011	2.370654372739428E-009	2.943113831800440E+004	5.713204926702026E+005	8.399999787798151E+000	7.893756878595950E-006	0.000000000000000E+000	7.893756878595950E-006	0.0000000E+000	7.000000000000000E+000	1.0607060E-006
2	0	0	0	0	0	0	2.066979947783693E+001	-2.9996943E-001	-3.0028051E-001	-3.533668120857329E-003	-3.6014968E-005	-3.6014968E-005	41	-7.991914317653458E-006	15	8.458128154151905E-011	2.400129223386222E-009	2.943113831800440E+004	7.723127391020046E+006	8.499999785271939E+000	7.991914317653458E-006	0.000000000000000E+000	7.991914317653458E-006	0.0000000E+000	7.000000000000000E+000	1.0610917E-006
2	0	0	0	0	0	0	2.076979947531072E+001	-2.9996943E-001	-3.0028805E-001	-3.539421138819308E-003	-3.6368911E-005	-3.6368911E-005	41	-8.090231563541568E-006	15	8.458128154151905E-011	2.429652760187558E-009	2.943113831800440E+004	7.634900386774947E+006	8.599999782745726E+000	8.090231563541568E-006	0.000000000000000E+000	8.090231563541568E-006	0.0000000E+000	7.000000000000000E+000	1.0628459E-006
2	0	0	0	0	0	0	2.086979947278451E+001	-2.9996943E-001	-3.0031866E-001	-3.534049224574117E-003	-3.6722315E-005	-3.6722315E-005	41	-8.188399591245218E-006	15	8.458128154151905E-011	2.459134390123457E-009	2.943113831800440E+004	8.563857577348534E+005	8.699999780219514E+000	8.188399591245218E-006	0.000000000000000E+000	8.188399591245218E-006	0.0000000E+000	7.000000000000000E+000	1.0613409E-006
2	0	0	0	0	0	0	2.095439947064733E+001	-2.9996943E-001	-3.0033776E-001	-3.531689644432318E-003	-3.7021098E-005	-3.7021098E-005	41	-8.271394293582010E-006	15	8.458128154151905E-011	2.484061052917949E-009	2.943113831800440E+004	5.563201417199711E+005	8.784599778082338E+000	8.271394293582010E-006	0.000000000000000E+000	8.271394293582010E-006	2.9367449E+003	7.000000000000000E+000	1.0606998E-006