mode	ox/red	error	control changes	counter inc.	time/s	control/V	Ewe/V	<I>/mA	cycle number	(Q-Qo)/C	I Range	step time/s	P/W	
2	1	1	1	0	0.000000000000000E+000	-3.0004257E-001	-3.0032375E-001	2.527748933061957E-003	1.000000000000000E+000	0.0000000E+000	39	0.000000000000000E+000	-7.5914306E-007
2	1	0	1	0	1.099999972211663E-001	-3.0059254E-001	-3.0087978E-001	3.767437164413606E-003	1.000000000000000E+000	3.5784944E-007	39	0.000000000000000E+000	-1.1335457E-006
2	1	0	1	0	3.099999921687413E-001	-3.0159238E-001	-3.0189371E-001	3.712799619656803E-003	1.000000000000000E+000	1.0573368E-006	39	1.999999949475750E-001	-1.1208708E-006
2	1	0	1	0	5.099999871163163E-001	-3.0259222E-001	-3.0288962E-001	3.800496138922867E-003	1.000000000000000E+000	1.7566097E-006	39	3.999999898951501E-001	-1.1511308E-006
2	1	0	1	0	7.099999820638914E-001	-3.0359206E-001	-3.0386707E-001	3.677264753859075E-003	1.000000000000000E+000	2.4553030E-006	39	5.999999848427251E-001	-1.1173996E-006
2	1	0	1	0	9.099999770114664E-001	-3.0459186E-001	-3.0488974E-001	3.770691657976340E-003	1.000000000000000E+000	3.1498485E-006	39	7.999999797903001E-001	-1.1496452E-006
2	1	0	1	0	1.109899971961568E+000	-3.0559203E-001	-3.0585903E-001	3.693026281795025E-003	1.000000000000000E+000	3.8520361E-006	39	9.998999747404014E-001	-1.1295455E-006
2	1	0	0	0	1.309799966911669E+000	-3.0659151E-001	-3.0690086E-001	3.522766915664985E-003	1.000000000000000E+000	4.5282040E-006	39	1.199799969690503E+000	-1.0811402E-006
2	1	0	0	0	1.509799961859244E+000	-3.0759138E-001	-3.0789042E-001	3.584997939733745E-003	1.000000000000000E+000	5.1881802E-006	39	1.399799964638078E+000	-1.1037865E-006
2	1	0	0	0	1.709799956806819E+000	-3.0859122E-001	-3.0887169E-001	3.419227365670498E-003	1.000000000000000E+000	5.8333439E-006	39	1.599799959585653E+000	-1.0561025E-006
2	1	0	0	0	1.909799951754394E+000	-3.0959103E-001	-3.0987418E-001	3.362527581817913E-003	1.000000000000000E+000	6.4690867E-006	39	1.799799954533228E+000	-1.0419604E-006
2	1	0	0	0	2.109799946701969E+000	-3.1059083E-001	-3.1089640E-001	3.325497770388045E-003	1.000000000000000E+000	7.0928204E-006	39	1.999799949480803E+000	-1.0338853E-006
2	1	0	1	0	2.309699941652070E+000	-3.1159103E-001	-3.1187779E-001	3.218418342590963E-003	1.000000000000000E+000	7.7077702E-006	39	2.199699944430904E+000	-1.0037531E-006
2	1	0	1	0	2.509599936602172E+000	-3.1259054E-001	-3.1288484E-001	3.257814435842915E-003	1.000000000000000E+000	8.3128652E-006	39	2.399599939381005E+000	-1.0193207E-006
2	1	0	1	0	2.709599931549747E+000	-3.1359032E-001	-3.1386825E-001	3.220139420088100E-003	1.000000000000000E+000	8.9118184E-006	39	2.599599934328580E+000	-1.0106995E-006
2	1	0	1	0	2.909599926497322E+000	-3.1459019E-001	-3.1488091E-001	3.205749094408031E-003	1.000000000000000E+000	9.5097075E-006	39	2.799599929276155E+000	-1.0094292E-006
2	1	0	1	0	3.109599921444897E+000	-3.1558999E-001	-3.1587365E-001	3.099470505757804E-003	1.000000000000000E+000	1.0093375E-005	39	2.999599924223730E+000	-9.7904103E-007
2	1	0	1	0	3.309499916394998E+000	-3.1658939E-001	-3.1685260E-001	2.931239894156293E-003	1.000000000000000E+000	1.0650095E-005	39	3.199499919173832E+000	-9.2877099E-007
2	1	0	0	0	3.509399911345099E+000	-3.1758967E-001	-3.1786332E-001	3.015588112136855E-003	1.000000000000000E+000	1.1200166E-005	39	3.399399914123933E+000	-9.5854489E-007
2	1	0	0	0	3.709399906292674E+000	-3.1858951E-001	-3.1886372E-001	2.869010434213596E-003	1.000000000000000E+000	1.1743206E-005	39	3.599399909071508E+000	-9.1482332E-007
2	1	0	0	0	3.909399901240249E+000	-3.1958935E-001	-3.1988525E-001	2.898675940147727E-003	1.000000000000000E+000	1.2278118E-005	39	3.799399904019083E+000	-9.2724366E-007
2	1	0	0	0	4.109399896187824E+000	-3.2058918E-001	-3.2088053E-001	2.885273054622481E-003	1.000000000000000E+000	1.2815431E-005	39	3.999399898966658E+000	-9.2582798E-007
2	1	0	0	0	4.309399891135399E+000	-3.2158899E-001	-3.2187179E-001	2.895964453813654E-003	1.000000000000000E+000	1.3346418E-005	39	4.199399893914233E+000	-9.3212924E-007
2	1	0	1	0	4.509299886085500E+000	-3.2258838E-001	-3.2286859E-001	2.864601096646111E-003	1.000000000000000E+000	1.3872483E-005	39	4.399299888864334E+000	-9.2488972E-007
2	1	0	1	0	4.709199881035602E+000	-3.2358867E-001	-3.2385489E-001	2.708710781642747E-003	1.000000000000000E+000	1.4380374E-005	39	4.599199883814435E+000	-8.7722924E-007
2	1	0	1	0	4.909199875983177E+000	-3.2458848E-001	-3.2485169E-001	2.779106510881271E-003	1.000000000000000E+000	1.4880910E-005	39	4.799199878762010E+000	-9.0279747E-007
2	1	0	1	0	5.109199870930752E+000	-3.2558832E-001	-3.2585078E-001	2.612986065283138E-003	1.000000000000000E+000	1.5371961E-005	39	4.999199873709586E+000	-8.5144359E-007
2	1	0	1	0	5.309199865878327E+000	-3.2658812E-001	-3.2685900E-001	2.615861325242518E-003	1.000000000000000E+000	1.5844380E-005	39	5.199199868657161E+000	-8.5501779E-007
2	1	0	1	0	5.509199860825902E+000	-3.2758796E-001	-3.2785743E-001	2.528481406433143E-003	1.000000000000000E+000	1.6305476E-005	39	5.399199863604736E+000	-8.2898146E-007
2	1	0	1	0	5.709099855776003E+000	-3.2858756E-001	-3.2887015E-001	2.576364182287415E-003	1.000000000000000E+000	1.6764197E-005	39	5.599099858554837E+000	-8.4728924E-007
2	1	0	0	0	5.908999850726104E+000	-3.2958764E-001	-3.2985947E-001	2.499339603001104E-003	1.000000000000000E+000	1.7222395E-005	39	5.798999853504938E+000	-8.2443080E-007
2	1	0	0	0	6.108999845673679E+000	-3.3058745E-001	-3.3088377E-001	2.476015535430302E-003	1.000000000000000E+000	1.7672608E-005	39	5.998999848452513E+000	-8.1927334E-007
2	1	0	0	0	6.308999840621254E+000	-3.3158728E-001	-3.3188775E-001	2.578576571012292E-003	1.000000000000000E+000	1.8126819E-005	39	6.198999843400088E+000	-8.5579796E-007
2	0	0	0	0	6.508999835568829E+000	-3.3258712E-001	-3.3285400E-001	2.468026516382747E-003	1.000000000000000E+000	1.8575685E-005	39	6.398999838347663E+000	-8.2149251E-007
2	0	0	0	0	6.708999830516404E+000	-3.3358693E-001	-3.3386135E-001	2.421958111115237E-003	1.000000000000000E+000	1.9009345E-005	39	6.598999833295238E+000	-8.0859820E-007
2	0	0	1	0	6.908899825466506E+000	-3.3458656E-001	-3.3485788E-001	2.392483953604578E-003	1.000000000000000E+000	1.9443563E-005	39	6.798899828245339E+000	-8.0114211E-007
2	0	0	1	0	7.108799820416607E+000	-3.3558661E-001	-3.3587161E-001	2.316074650562489E-003	1.000000000000000E+000	1.9873267E-005	39	6.998799823195441E+000	-7.7790372E-007
2	0	0	1	0	7.308799815364182E+000	-3.3658642E-001	-3.3686587E-001	2.333022700426339E-003	1.000000000000000E+000	2.0298290E-005	39	7.198799818143016E+000	-7.8591574E-007
2	1	0	1	0	7.508799810311757E+000	-3.3758628E-001	-3.3787170E-001	2.226692079148045E-003	1.000000000000000E+000	2.0709054E-005	39	7.398799813090591E+000	-7.5233623E-007
2	1	0	1	0	7.708799805259332E+000	-3.3858612E-001	-3.3884561E-001	2.349972758015222E-003	1.000000000000000E+000	2.1120777E-005	39	7.598799808038166E+000	-7.9627796E-007
2	0	0	1	0	7.908799800206907E+000	-3.3958596E-001	-3.3984110E-001	2.310066296266105E-003	1.000000000000000E+000	2.1530224E-005	39	7.798799802985741E+000	-7.8505548E-007
2	0	0	1	0	8.108699795157008E+000	-3.4058565E-001	-3.4085497E-001	2.121948365598418E-003	1.000000000000000E+000	2.1915137E-005	39	7.998699797935842E+000	-7.2327663E-007
2	0	0	0	0	8.308599790107110E+000	-3.4158561E-001	-3.4185877E-001	2.067316022073849E-003	1.000000000000000E+000	2.2287457E-005	39	8.198599792885943E+000	-7.0673013E-007
2	0	0	0	0	8.508599785054685E+000	-3.4258544E-001	-3.4284833E-001	2.164039785101836E-003	1.000000000000000E+000	2.2667913E-005	39	8.398599787833518E+000	-7.4193741E-007
2	0	0	0	0	8.708599780002260E+000	-3.4358525E-001	-3.4385338E-001	2.253412478133418E-003	1.000000000000000E+000	2.3060344E-005	39	8.598599782781093E+000	-7.7484350E-007
2	1	0	0	0	8.908599774949835E+000	-3.4458509E-001	-3.4485948E-001	2.149800580252735E-003	1.000000000000000E+000	2.3434739E-005	39	8.798599777728668E+000	-7.4137910E-007
2	1	0	0	0	9.108599769897410E+000	-3.4558493E-001	-3.4584627E-001	2.100893923533034E-003	1.000000000000000E+000	2.3794015E-005	39	8.998599772676243E+000	-7.2658634E-007
2	0	0	1	0	9.308499764847511E+000	-3.4658486E-001	-3.4686622E-001	2.103202505080338E-003	1.000000000000000E+000	2.4153416E-005	39	9.198499767626345E+000	-7.2952992E-007
2	1	0	1	0	9.508399759797612E+000	-3.4758461E-001	-3.4785780E-001	2.126633478846663E-003	1.000000000000000E+000	2.4513643E-005	39	9.398399762576446E+000	-7.3976605E-007
2	1	0	1	0	9.708399754745187E+000	-3.4858441E-001	-3.4885433E-001	1.958720136373025E-003	1.000000000000000E+000	2.4865309E-005	39	9.598399757524021E+000	-6.8330803E-007
2	0	0	1	0	9.908399749692762E+000	-3.4958425E-001	-3.4986725E-001	1.959974018488644E-003	1.000000000000000E+000	2.5198669E-005	39	9.798399752471596E+000	-6.8573075E-007
2	0	0	1	0	1.010839974464034E+001	-3.5058409E-001	-3.5086381E-001	1.959020720748413E-003	1.000000000000000E+000	2.5532991E-005	39	9.998399747419171E+000	-6.8734948E-007
2	0	0	1	0	1.030839973958791E+001	-3.5158390E-001	-3.5187560E-001	1.935098290695412E-003	1.000000000000000E+000	2.5863856E-005	39	1.019839974236675E+001	-6.8091390E-007
2	0	0	1	0	1.050829973453801E+001	-3.5258386E-001	-3.5286653E-001	2.060507445088429E-003	1.000000000000000E+000	2.6208067E-005	39	1.039829973731685E+001	-7.2708411E-007
2	0	0	0	0	1.070819972948811E+001	-3.5358357E-001	-3.5385409E-001	1.990214901443712E-003	1.000000000000000E+000	2.6553682E-005	39	1.059819973226695E+001	-7.0424568E-007
2	0	0	0	0	1.090819972443569E+001	-3.5458344E-001	-3.5485333E-001	1.927298317577143E-003	1.000000000000000E+000	2.6891357E-005	39	1.079819972721452E+001	-6.8390824E-007
2	0	0	0	0	1.110819971938326E+001	-3.5558322E-001	-3.5585037E-001	1.916721295619876E-003	1.000000000000000E+000	2.7221311E-005	39	1.099819972216210E+001	-6.8206600E-007
2	1	0	0	0	1.130819971433084E+001	-3.5658303E-001	-3.5687891E-001	1.859528450057163E-003	1.000000000000000E+000	2.7539898E-005	39	1.119819971710967E+001	-6.6362645E-007
2	0	0	0	0	1.150819970927842E+001	-3.5758290E-001	-3.5784450E-001	1.839577844616427E-003	1.000000000000000E+000	2.7853257E-005	39	1.139819971205725E+001	-6.5828283E-007
2	1	0	1	0	1.170809970422852E+001	-3.5858309E-001	-3.5885924E-001	1.809141589465661E-003	1.000000000000000E+000	2.8156155E-005	39	1.159809970700735E+001	-6.4922716E-007
2	1	0	1	0	1.190799969917862E+001	-3.5958257E-001	-3.5986137E-001	1.852829163382714E-003	1.000000000000000E+000	2.8466071E-005	39	1.179799970195745E+001	-6.6676165E-007
2	1	0	1	0	1.210799969412619E+001	-3.6058238E-001	-3.6083922E-001	1.870148980920031E-003	1.000000000000000E+000	2.8777060E-005	39	1.199799969690503E+001	-6.7482307E-007
2	1	0	1	0	1.230799968907377E+001	-3.6158222E-001	-3.6184344E-001	1.846983406910550E-003	1.000000000000000E+000	2.9085251E-005	39	1.219799969185260E+001	-6.6831882E-007
2	0	0	1	0	1.250799968402134E+001	-3.6258203E-001	-3.6284631E-001	1.885147607393833E-003	1.000000000000000E+000	2.9390190E-005	39	1.239799968680018E+001	-6.8401886E-007
2	0	0	1	0	1.270799967896892E+001	-3.6358187E-001	-3.6385858E-001	1.946189601336374E-003	1.000000000000000E+000	2.9699768E-005	39	1.259799968174775E+001	-7.0813780E-007
2	0	0	1	0	1.290789967391902E+001	-3.6458206E-001	-3.6484063E-001	1.882919332961153E-003	1.000000000000000E+000	3.0002526E-005	39	1.279789967669785E+001	-6.8696545E-007
2	0	0	0	0	1.310779966886912E+001	-3.6558151E-001	-3.6584428E-001	1.844646538824475E-003	1.000000000000000E+000	3.0297224E-005	39	1.299779967164795E+001	-6.7485337E-007
2	1	0	0	0	1.330779966381670E+001	-3.6658135E-001	-3.6684865E-001	1.869064195401402E-003	1.000000000000000E+000	3.0590585E-005	39	1.319779966659553E+001	-6.8566368E-007
2	0	0	0	0	1.350779965876427E+001	-3.6758122E-001	-3.6784372E-001	1.728802610745060E-003	1.000000000000000E+000	3.0880616E-005	39	1.339779966154310E+001	-6.3592915E-007
2	0	0	0	0	1.370779965371185E+001	-3.6858103E-001	-3.6884028E-001	1.697519136129463E-003	1.000000000000000E+000	3.1161850E-005	39	1.359779965649068E+001	-6.2611343E-007
2	1	0	0	0	1.390779964865942E+001	-3.6958086E-001	-3.6986503E-001	1.706243701342959E-003	1.000000000000000E+000	3.1433461E-005	39	1.379779965143825E+001	-6.3107990E-007
2	1	0	1	0	1.410769964360952E+001	-3.7058115E-001	-3.7087142E-001	1.766931947467016E-003	1.000000000000000E+000	3.1706651E-005	39	1.399769964638836E+001	-6.5530458E-007
2	1	0	1	0	1.430759963855962E+001	-3.7158051E-001	-3.7185138E-001	1.852490304351993E-003	1.000000000000000E+000	3.1985506E-005	39	1.419759964133846E+001	-6.8885106E-007
2	1	0	1	0	1.450759963350720E+001	-3.7258035E-001	-3.7285218E-001	1.748941908820856E-003	1.000000000000000E+000	3.2268705E-005	39	1.439759963628603E+001	-6.5209679E-007
2	1	0	1	0	1.470759962845477E+001	-3.7358019E-001	-3.7386310E-001	1.774258118599359E-003	1.000000000000000E+000	3.2544292E-005	39	1.459759963123361E+001	-6.6332962E-007
2	1	0	1	0	1.490759962340235E+001	-3.7458000E-001	-3.7487620E-001	1.718436097630033E-003	1.000000000000000E+000	3.2825657E-005	39	1.479759962618118E+001	-6.4420078E-007
2	1	0	1	0	1.510749961835245E+001	-3.7557942E-001	-3.7586632E-001	1.748602756645914E-003	1.000000000000000E+000	3.3103479E-005	39	1.499749962113128E+001	-6.5724089E-007
2	1	0	0	0	1.530739961330255E+001	-3.7657964E-001	-3.7687671E-001	1.794250671967155E-003	1.000000000000000E+000	3.3382887E-005	39	1.519739961608138E+001	-6.7621130E-007
2	1	0	0	0	1.550739960825013E+001	-3.7757951E-001	-3.7785950E-001	1.668275263844415E-003	1.000000000000000E+000	3.3657841E-005	39	1.539739961102896E+001	-6.3037368E-007
2	1	0	0	0	1.570739960319770E+001	-3.7857935E-001	-3.7882891E-001	1.686491569112589E-003	1.000000000000000E+000	3.3918281E-005	39	1.559739960597653E+001	-6.3889178E-007
2	1	0	0	0	1.590739959814528E+001	-3.7957919E-001	-3.7985134E-001	1.709024381465224E-003	1.000000000000000E+000	3.4183184E-005	39	1.579739960092411E+001	-6.4917521E-007
2	1	0	0	0	1.610739959309285E+001	-3.8057899E-001	-3.8086799E-001	1.586055318232627E-003	1.000000000000000E+000	3.4437067E-005	39	1.599739959587168E+001	-6.0407768E-007
2	0	0	1	0	1.630729958804295E+001	-3.8157839E-001	-3.8186327E-001	1.613092679066452E-003	1.000000000000000E+000	3.4679488E-005	39	1.619729959082179E+001	-6.1598087E-007
2	1	0	1	0	1.650719958299305E+001	-3.8257864E-001	-3.8285407E-001	1.709827027526166E-003	1.000000000000000E+000	3.4929573E-005	39	1.639719958577189E+001	-6.5461427E-007
2	1	0	1	0	1.670719957794063E+001	-3.8357848E-001	-3.8384575E-001	1.662985816976915E-003	1.000000000000000E+000	3.5186040E-005	39	1.659719958071946E+001	-6.3833005E-007
2	1	0	1	0	1.690719957288820E+001	-3.8457832E-001	-3.8485381E-001	1.731226686984787E-003	1.000000000000000E+000	3.5438174E-005	39	1.679719957566704E+001	-6.6626916E-007
2	0	0	1	0	1.710719956783578E+001	-3.8557813E-001	-3.8586435E-001	1.602565770550199E-003	1.000000000000000E+000	3.5683308E-005	39	1.699719957061461E+001	-6.1837301E-007
2	1	0	1	0	1.730719956278335E+001	-3.8657796E-001	-3.8685265E-001	1.586030724238118E-003	1.000000000000000E+000	3.5918387E-005	39	1.719719956556219E+001	-6.1356019E-007
2	1	0	1	0	1.750709955773345E+001	-3.8757759E-001	-3.8786021E-001	1.670558500348685E-003	1.000000000000000E+000	3.6163663E-005	39	1.739709956051229E+001	-6.4794318E-007
2	0	0	0	0	1.770699955268356E+001	-3.8857761E-001	-3.8884509E-001	1.768399447046959E-003	1.000000000000000E+000	3.6418707E-005	39	1.759699955546239E+001	-6.8763342E-007
2	0	0	0	0	1.790699954763113E+001	-3.8957748E-001	-3.8984483E-001	1.562789108093038E-003	1.000000000000000E+000	3.6671296E-005	39	1.779699955040996E+001	-6.0924526E-007
2	1	0	0	0	1.810699954257871E+001	-3.9057732E-001	-3.9086288E-001	1.672187065677434E-003	1.000000000000000E+000	3.6911810E-005	39	1.799699954535754E+001	-6.5359586E-007
2	1	0	0	0	1.830699953752628E+001	-3.9157718E-001	-3.9184150E-001	1.578117370340758E-003	1.000000000000000E+000	3.7149493E-005	39	1.819699954030511E+001	-6.1837187E-007
2	1	0	0	0	1.850699953247386E+001	-3.9257696E-001	-3.9282537E-001	1.736340270518555E-003	1.000000000000000E+000	3.7395548E-005	39	1.839699953525269E+001	-6.8207851E-007
2	0	0	1	0	1.870689952742396E+001	-3.9357659E-001	-3.9385518E-001	1.647297102957787E-003	1.000000000000000E+000	3.7640653E-005	39	1.859689953020279E+001	-6.4879652E-007
2	1	0	1	0	1.890679952237406E+001	-3.9457667E-001	-3.9484495E-001	1.656608037151036E-003	1.000000000000000E+000	3.7879268E-005	39	1.879679952515289E+001	-6.5410330E-007
2	0	0	1	0	1.910679951732163E+001	-3.9557648E-001	-3.9584023E-001	1.555778540758025E-003	1.000000000000000E+000	3.8112656E-005	39	1.899679952010047E+001	-6.1583972E-007
2	1	0	1	0	1.930679951226921E+001	-3.9657632E-001	-3.9685544E-001	1.571049858319892E-003	1.000000000000000E+000	3.8342507E-005	39	1.919679951504804E+001	-6.2347971E-007
2	1	0	1	0	1.950679950721678E+001	-3.9757612E-001	-3.9784625E-001	1.574369550928295E-003	1.000000000000000E+000	3.8563656E-005	39	1.939679950999562E+001	-6.2635701E-007
2	1	0	1	0	1.970679950216436E+001	-3.9857596E-001	-3.9885172E-001	1.614233070052803E-003	1.000000000000000E+000	3.8788014E-005	39	1.959679950494319E+001	-6.4383966E-007
2	1	0	1	0	1.990669949711446E+001	-3.9957568E-001	-3.9986724E-001	1.547570225369074E-003	1.000000000000000E+000	3.9009472E-005	39	1.979669949989329E+001	-6.1882264E-007
2	1	0	0	0	2.010659949206456E+001	-4.0057567E-001	-4.0085262E-001	1.611725533110264E-003	1.000000000000000E+000	3.9227241E-005	39	1.999659949484339E+001	-6.4606439E-007
2	1	0	0	0	2.030659948701214E+001	-4.0157548E-001	-4.0185434E-001	1.581576200181118E-003	1.000000000000000E+000	3.9451250E-005	39	2.019659948979097E+001	-6.3556325E-007
2	1	0	0	0	2.050659948195971E+001	-4.0257531E-001	-4.0283436E-001	1.566582763584162E-003	1.000000000000000E+000	3.9682876E-005	39	2.039659948473854E+001	-6.3107336E-007
2	1	0	0	0	2.070659947690729E+001	-4.0357509E-001	-4.0384951E-001	1.552653914021367E-003	1.000000000000000E+000	3.9908715E-005	39	2.059659947968612E+001	-6.2703850E-007
2	1	0	0	0	2.090659947185486E+001	-4.0457493E-001	-4.0485272E-001	1.578228038111203E-003	1.000000000000000E+000	4.0132334E-005	39	2.079659947463369E+001	-6.3894993E-007
2	1	0	1	0	2.110649946680496E+001	-4.0557489E-001	-4.0585205E-001	1.536895671095686E-003	1.000000000000000E+000	4.0354676E-005	39	2.099649946958380E+001	-6.2375227E-007
2	1	0	1	0	2.130639946175506E+001	-4.0657461E-001	-4.0687817E-001	1.588485059169751E-003	1.000000000000000E+000	4.0577397E-005	39	2.119639946453390E+001	-6.4631990E-007
2	1	0	1	0	2.150639945670264E+001	-4.0757445E-001	-4.0783894E-001	1.558740781048285E-003	1.000000000000000E+000	4.0802021E-005	39	2.139639945948147E+001	-6.3571520E-007
2	1	0	1	0	2.170639945165021E+001	-4.0857428E-001	-4.0887621E-001	1.492732110257433E-003	1.000000000000000E+000	4.1018786E-005	39	2.159639945442905E+001	-6.1034262E-007
2	1	0	1	0	2.190639944659779E+001	-4.0957409E-001	-4.0988040E-001	1.430449268573615E-003	1.000000000000000E+000	4.1226973E-005	39	2.179639944937662E+001	-5.8631309E-007
2	1	0	1	0	2.210639944154536E+001	-4.1057393E-001	-4.1088477E-001	1.534090647169022E-003	1.000000000000000E+000	4.1436124E-005	39	2.199639944432420E+001	-6.3033445E-007
2	1	0	1	0	2.230629943649546E+001	-4.1157389E-001	-4.1187170E-001	1.538541887939400E-003	1.000000000000000E+000	4.1649950E-005	39	2.219629943927430E+001	-6.3368185E-007
2	1	0	0	0	2.250619943144557E+001	-4.1257358E-001	-4.1288257E-001	1.459195819438618E-003	1.000000000000000E+000	4.1851297E-005	39	2.239619943422440E+001	-6.0247652E-007
2	1	0	0	0	2.270619942639314E+001	-4.1357341E-001	-4.1386935E-001	1.516463894770365E-003	1.000000000000000E+000	4.2056607E-005	39	2.259619942917197E+001	-6.2761791E-007
2	1	0	0	0	2.290619942134072E+001	-4.1457322E-001	-4.1487184E-001	1.522514934630119E-003	1.000000000000000E+000	4.2263960E-005	39	2.279619942411955E+001	-6.3164856E-007
2	1	0	0	0	2.310619941628829E+001	-4.1557309E-001	-4.1588959E-001	1.597739947164632E-003	1.000000000000000E+000	4.2474025E-005	39	2.299619941906712E+001	-6.6448342E-007
2	1	0	0	0	2.330619941123587E+001	-4.1657293E-001	-4.1687641E-001	1.571739249648867E-003	1.000000000000000E+000	4.2689720E-005	39	2.319619941401470E+001	-6.5522102E-007
2	1	0	1	0	2.350609940618597E+001	-4.1757286E-001	-4.1786054E-001	1.406430523866905E-003	1.000000000000000E+000	4.2893578E-005	39	2.339609940896480E+001	-5.8769183E-007
2	1	0	1	0	2.370599940113607E+001	-4.1857257E-001	-4.1887072E-001	1.501895761893409E-003	1.000000000000000E+000	4.3087268E-005	39	2.359599940391490E+001	-6.2910016E-007
2	1	0	1	0	2.390599939608364E+001	-4.1957241E-001	-4.1987473E-001	1.513063107347353E-003	1.000000000000000E+000	4.3288586E-005	39	2.379599939886248E+001	-6.3529694E-007
2	1	0	1	0	2.410599939103122E+001	-4.2057228E-001	-4.2085916E-001	1.419168901505655E-003	1.000000000000000E+000	4.3485310E-005	39	2.399599939381005E+001	-5.9727023E-007
2	1	0	1	0	2.430599938597879E+001	-4.2157209E-001	-4.2186591E-001	1.542967738658976E-003	1.000000000000000E+000	4.3686978E-005	39	2.419599938875763E+001	-6.5092547E-007
2	1	0	1	0	2.450599938092637E+001	-4.2257193E-001	-4.2287198E-001	1.479706494238184E-003	1.000000000000000E+000	4.3891603E-005	39	2.439599938370520E+001	-6.2572639E-007
2	1	0	1	0	2.470589937587647E+001	-4.2357194E-001	-4.2385864E-001	1.591878314632908E-003	1.000000000000000E+000	4.4099750E-005	39	2.459589937865530E+001	-6.7473138E-007
2	1	0	0	0	2.490579937082657E+001	-4.2457154E-001	-4.2487171E-001	1.418718557468723E-003	1.000000000000000E+000	4.4301993E-005	39	2.479579937360541E+001	-6.0277341E-007
2	1	0	0	0	2.510579936577415E+001	-4.2557141E-001	-4.2587543E-001	1.473093196194538E-003	1.000000000000000E+000	4.4494001E-005	39	2.499579936855298E+001	-6.2735421E-007
2	1	0	0	0	2.530579936072172E+001	-4.2657122E-001	-4.2687070E-001	1.426387739054236E-003	1.000000000000000E+000	4.4693435E-005	39	2.519579936350056E+001	-6.0888311E-007
2	1	0	0	0	2.550579935566930E+001	-4.2757106E-001	-4.2788193E-001	1.453568305958802E-003	1.000000000000000E+000	4.4887340E-005	39	2.539579935844813E+001	-6.2195562E-007
2	1	0	0	0	2.570579935061687E+001	-4.2857090E-001	-4.2888185E-001	1.486125803799108E-003	1.000000000000000E+000	4.5083103E-005	39	2.559579935339571E+001	-6.3737241E-007
2	1	0	1	0	2.590569934556697E+001	-4.2957106E-001	-4.2987067E-001	1.454573660423918E-003	1.000000000000000E+000	4.5275254E-005	39	2.579569934834581E+001	-6.2527857E-007
2	1	0	1	0	2.610559934051707E+001	-4.3057054E-001	-4.3086579E-001	1.504169121737564E-003	1.000000000000000E+000	4.5463497E-005	39	2.599559934329591E+001	-6.4809501E-007
2	1	0	1	0	2.630559933546465E+001	-4.3157035E-001	-4.3187252E-001	1.510055934189916E-003	1.000000000000000E+000	4.5662779E-005	39	2.619559933824348E+001	-6.5215164E-007
2	1	0	1	0	2.650559933041222E+001	-4.3257019E-001	-4.3286803E-001	1.547965482904850E-003	1.000000000000000E+000	4.5856723E-005	39	2.639559933319106E+001	-6.7006476E-007
2	1	0	1	0	2.670559932535980E+001	-4.3357003E-001	-4.3388411E-001	1.399621999058385E-003	1.000000000000000E+000	4.6046054E-005	39	2.659559932813863E+001	-6.0727376E-007